[[217, 177, 176], [217, 178, 172], [219, 180, 176], [220, 181, 177], [219, 179, 180], [221, 182, 178], [220, 181, 177], [220, 181, 177], [218, 181, 176], [218, 179, 175], [217, 177, 176], [218, 180, 178], [217, 177, 176], [216, 177, 173], [216, 177, 173], [216, 176, 175], [217, 177, 176], [216, 179, 174], [217, 180, 175], [217, 178, 174], [217, 177, 176], [217, 178, 174], [217, 179, 177], [217, 178, 174], [219, 180, 176], [219, 177, 174], [220, 178, 177], [219, 177, 174], [219, 177, 174], [217, 177, 176], [219, 177, 176], [216, 177, 173], [220, 178, 175], [218, 176, 173], [219, 177, 176], [218, 176, 175], [218, 176, 175], [220, 176, 174], [218, 178, 179], [222, 178, 176], [216, 176, 175], [217, 177, 176], [218, 176, 175], [219, 175, 175], [220, 176, 174], [220, 176, 174], [214, 174, 175], [218, 179, 175], [220, 178, 175], [217, 175, 172], [219, 179, 178], [220, 180, 179], [217, 175, 174], [218, 176, 175], [216, 176, 175], [218, 176, 173], [218, 178, 177], [216, 176, 175], [218, 178, 177], [215, 175, 174], [216, 176, 175], [217, 180, 175], [218, 176, 173], [218, 175, 177], [216, 176, 175], [217, 179, 177], [217, 177, 176], [216, 176, 175], [215, 177, 175], [217, 177, 178], [213, 178, 177], [215, 177, 177], [215, 175, 174], [216, 176, 175], [215, 176, 179], [215, 178, 173], [218, 180, 178], [217, 179, 177], [218, 180, 180], [218, 178, 179], [217, 179, 177], [218, 179, 175], [217, 180, 175], [217, 179, 177], [218, 180, 178], [218, 178, 177], [217, 179, 177], [218, 178, 179], [218, 180, 178], [218, 178, 177], [218, 178, 179], [218, 178, 179], [218, 180, 178], [218, 180, 180], [218, 178, 177], [218, 178, 179], [218, 180, 178], [218, 178, 177], [218, 180, 178], [217, 177, 176], [218, 178, 177], [217, 177, 176], [216, 178, 176], [217, 179, 179], [217, 179, 177], [217, 177, 176], [216, 178, 176], [216, 178, 178], [216, 178, 176], [217, 179, 177], [220, 178, 175], [218, 179, 175], [218, 178, 177], [215, 175, 174], [218, 179, 175], [217, 178, 174], [217, 178, 172], [217, 178, 174], [217, 178, 172], [216, 177, 173], [218, 179, 175], [217, 177, 176], [217, 180, 175], [216, 178, 176], [217, 178, 174], [217, 178, 174], [216, 176, 175], [217, 177, 176], [217, 177, 176], [218, 178, 177], [216, 179, 174], [218, 176, 173], [217, 178, 174], [216, 176, 175], [217, 178, 174], [217, 178, 174], [217, 177, 178], [219, 177, 174], [217, 178, 174], [217, 178, 174], [217, 178, 174], [217, 178, 174], [219, 177, 174], [216, 179, 174], [217, 177, 176], [217, 178, 174], [216, 179, 174], [217, 178, 174], [217, 178, 174], [216, 179, 174], [216, 178, 176], [217, 180, 175], [216, 178, 176], [216, 179, 174], [217, 178, 174], [217, 177, 176], [217, 178, 174], [217, 178, 174], [220, 178, 177], [220, 178, 175], [218, 179, 173], [220, 178, 175], [220, 178, 173], [219, 177, 172], [221, 178, 173], [216, 177, 173], [219, 177, 174], [217, 177, 176], [216, 176, 175], [219, 177, 172], [218, 179, 175], [217, 178, 174], [217, 178, 174], [218, 176, 173], [215, 175, 174], [217, 177, 176], [216, 178, 176], [217, 178, 174], [216, 176, 175], [218, 176, 173], [216, 179, 174], [217, 175, 172], [218, 179, 175], [216, 177, 173], [216, 176, 175], [216, 176, 175], [217, 178, 174], [216, 178, 176], [216, 177, 171], [218, 178, 177], [215, 176, 172], [216, 177, 173], [217, 178, 174], [217, 178, 174], [220, 178, 175], [216, 178, 176], [217, 177, 176], [217, 177, 176], [217, 178, 174], [217, 177, 176], [216, 176, 175], [217, 177, 176], [217, 177, 176], [218, 179, 175], [218, 179, 175], [217, 180, 175], [217, 178, 172], [216, 178, 176], [217, 177, 176], [219, 177, 172], [217, 178, 174], [217, 178, 174], [216, 179, 174], [219, 177, 176], [217, 178, 174], [217, 177, 176], [217, 177, 176], [216, 176, 177], [218, 178, 177], [219, 177, 174], [220, 178, 175], [220, 178, 175], [220, 178, 175], [217, 177, 176], [219, 177, 176], [220, 178, 175], [218, 179, 175], [219, 175, 175], [217, 178, 174], [219, 177, 174], [217, 178, 174], [217, 178, 174], [218, 178, 177], [217, 178, 174], [218, 179, 175], [217, 179, 177], [218, 179, 175], [216, 181, 178], [218, 179, 175], [218, 179, 175], [218, 179, 175], [217, 179, 177], [218, 178, 177], [215, 175, 174], [216, 177, 173], [215, 176, 172], [217, 177, 176], [216, 176, 175], [219, 177, 174], [215, 176, 172], [216, 177, 173], [217, 177, 176], [217, 177, 176], [213, 178, 175], [218, 179, 175], [216, 178, 176], [217, 177, 176], [217, 177, 176], [217, 178, 174], [217, 178, 174], [218, 179, 173], [218, 176, 173], [219, 177, 174], [219, 177, 174], [217, 178, 174], [217, 178, 174], [217, 177, 176], [216, 179, 174], [217, 180, 175], [217, 178, 174], [217, 177, 176], [216, 178, 176], [217, 178, 174], [218, 178, 177], [218, 179, 175], [217, 178, 174], [217, 178, 174], [217, 180, 175], [217, 177, 176], [217, 178, 174], [215, 178, 173], [216, 176, 175], [219, 177, 174], [216, 176, 175], [216, 177, 173], [218, 176, 173], [216, 177, 173], [219, 177, 174], [218, 176, 173], [217, 178, 174], [218, 179, 175], [219, 177, 174], [219, 177, 174], [219, 177, 174], [217, 177, 176], [217, 178, 174], [217, 178, 174], [218, 179, 175], [217, 178, 174], [217, 177, 176], [221, 179, 176], [218, 178, 177], [220, 176, 174], [217, 178, 172], [217, 178, 172], [217, 178, 174], [219, 177, 174], [220, 178, 175], [217, 178, 174], [219, 177, 174], [217, 178, 174], [217, 178, 174], [217, 178, 174], [217, 178, 174], [217, 178, 174], [217, 177, 176], [218, 179, 175], [217, 177, 176], [217, 180, 175], [219, 180, 174], [218, 179, 175], [218, 179, 175], [218, 179, 173], [219, 180, 176], [216, 179, 174], [217, 178, 174], [217, 178, 174], [217, 178, 174], [217, 178, 174], [216, 177, 173], [218, 179, 175], [217, 178, 174], [219, 177, 174], [217, 178, 174], [220, 178, 175], [218, 179, 175], [218, 179, 173], [218, 179, 175], [218, 179, 175], [218, 179, 175], [217, 178, 174], [217, 178, 174], [218, 176, 173], [217, 178, 174], [217, 177, 176], [216, 177, 173], [218, 179, 175], [218, 179, 175], [217, 179, 177], [216, 178, 176], [217, 179, 177], [218, 179, 175], [218, 179, 175], [218, 179, 175], [217, 180, 175], [217, 179, 177], [217, 179, 177], [217, 179, 177], [218, 178, 177], [216, 178, 176], [218, 179, 173], [217, 177, 178], [217, 178, 174], [218, 178, 177], [217, 178, 174], [217, 177, 178], [216, 178, 176], [216, 177, 173], [215, 176, 172], [214, 175, 171], [217, 175, 172], [216, 174, 173], [214, 175, 171], [218, 179, 175], [216, 176, 175], [216, 179, 174], [217, 178, 174], [218, 179, 175], [218, 179, 175], [218, 179, 175], [218, 179, 175], [220, 178, 177], [219, 177, 174], [218, 179, 175], [217, 178, 174], [217, 178, 174], [216, 176, 175], [217, 177, 176], [217, 178, 174], [216, 178, 178], [218, 178, 177], [219, 177, 174], [217, 178, 174], [217, 177, 176], [217, 178, 174], [218, 178, 177], [217, 177, 176], [216, 179, 174], [218, 178, 177], [216, 178, 176], [216, 179, 174], [217, 177, 176], [217, 177, 176], [216, 178, 176], [216, 177, 173], [218, 179, 175], [218, 179, 175], [215, 177, 175], [217, 177, 176], [216, 177, 173], [216, 177, 173], [216, 176, 175], [216, 178, 176], [217, 177, 176], [216, 176, 175], [216, 176, 175], [217, 178, 174], [217, 178, 174], [217, 178, 174], [218, 179, 175], [218, 178, 179], [220, 178, 175], [218, 179, 175], [217, 178, 174], [219, 177, 174], [219, 177, 174], [219, 177, 174], [219, 177, 174], [219, 177, 174], [218, 179, 173], [217, 178, 174], [217, 177, 176], [218, 179, 175], [218, 179, 175], [217, 177, 176], [217, 180, 175], [218, 179, 175], [217, 179, 177], [218, 179, 175], [216, 179, 174], [218, 179, 173], [217, 180, 175], [220, 178, 175], [217, 177, 176], [218, 179, 175], [218, 179, 175], [217, 178, 172], [216, 178, 176], [218, 181, 176], [218, 178, 177], [217, 178, 174], [218, 179, 175], [217, 180, 175], [216, 179, 174], [218, 178, 177], [218, 178, 177], [218, 179, 175], [220, 178, 175], [218, 178, 177], [218, 179, 175], [218, 178, 177], [217, 178, 174], [217, 178, 174], [218, 179, 175], [218, 179, 175], [218, 179, 175], [217, 180, 175], [218, 179, 175], [218, 179, 175], [218, 178, 177], [217, 180, 175], [219, 177, 174], [217, 178, 174], [220, 177, 172], [217, 180, 175], [218, 179, 175], [217, 178, 174], [217, 178, 174], [218, 179, 175], [217, 179, 177], [217, 180, 175], [218, 178, 177], [217, 179, 177], [218, 178, 177], [216, 179, 174], [218, 179, 175], [218, 179, 175], [218, 179, 173], [216, 177, 173], [216, 176, 175], [219, 177, 174], [220, 178, 175], [217, 178, 174], [218, 179, 175], [217, 178, 174], [217, 177, 176], [218, 179, 175], [218, 179, 175], [217, 180, 175], [217, 177, 176], [218, 178, 177], [218, 180, 178], [218, 181, 176], [218, 179, 175], [217, 178, 174], [219, 180, 174], [216, 179, 174], [217, 179, 177], [217, 178, 172], [217, 179, 177], [217, 177, 176], [217, 179, 177], [217, 178, 174], [217, 177, 176], [217, 180, 175], [218, 176, 173], [217, 178, 174], [218, 179, 175], [219, 177, 174], [220, 178, 175], [217, 178, 174], [219, 180, 174], [218, 179, 175], [217, 178, 174], [218, 179, 175], [218, 179, 175], [220, 178, 175], [219, 177, 174], [221, 179, 176], [218, 179, 175], [220, 178, 175], [218, 179, 175], [218, 179, 175], [219, 177, 174], [217, 177, 176], [217, 178, 174], [218, 179, 173], [217, 180, 175], [217, 179, 177], [217, 178, 174], [217, 178, 174], [219, 177, 172], [217, 178, 174], [219, 177, 174], [217, 177, 176], [217, 178, 174], [216, 178, 176], [216, 176, 175], [216, 177, 173], [216, 176, 175], [217, 177, 176], [217, 178, 174], [217, 178, 172], [217, 180, 175], [217, 178, 174], [218, 176, 173], [216, 177, 173], [218, 176, 173], [216, 177, 173], [218, 176, 173], [216, 177, 173], [217, 178, 174], [216, 177, 173], [217, 177, 176], [217, 179, 177], [218, 178, 179], [217, 177, 176], [218, 179, 175], [217, 178, 174], [217, 177, 176], [217, 177, 176], [216, 177, 173], [218, 179, 175], [216, 177, 173], [218, 176, 173], [218, 176, 173], [216, 177, 173], [217, 178, 174], [218, 178, 177], [217, 178, 174], [218, 179, 175], [217, 178, 174], [217, 178, 174], [217, 179, 177], [218, 179, 175], [217, 177, 176], [217, 178, 174], [216, 178, 176], [217, 178, 174], [217, 177, 176], [217, 179, 177], [217, 180, 175], [216, 176, 177], [217, 179, 177], [216, 176, 175], [218, 176, 173], [218, 179, 175], [217, 178, 174], [217, 178, 174], [218, 176, 173], [218, 176, 173], [220, 176, 174], [217, 178, 172], [217, 177, 176], [217, 178, 174], [217, 178, 174], [217, 178, 174], [218, 176, 171], [219, 177, 174], [217, 178, 174], [217, 177, 176], [219, 177, 174], [217, 178, 174], [218, 176, 173], [216, 177, 171], [218, 176, 173], [217, 178, 174], [218, 179, 175], [217, 178, 172], [218, 179, 175], [218, 179, 175], [216, 176, 175], [218, 176, 171], [218, 176, 173], [216, 176, 175], [217, 178, 174], [217, 178, 174], [218, 176, 173], [216, 176, 175], [217, 178, 174], [216, 177, 171], [217, 177, 176], [216, 176, 175], [217, 178, 174], [216, 176, 175], [218, 179, 173], [219, 177, 174], [218, 179, 175], [217, 178, 174], [219, 177, 172], [218, 179, 175], [218, 179, 175], [219, 177, 174], [218, 179, 175], [220, 178, 175], [218, 179, 173], [218, 179, 173], [219, 177, 174], [218, 179, 175], [218, 179, 175], [219, 180, 176], [218, 179, 175], [221, 178, 173], [218, 179, 173], [220, 178, 175], [217, 178, 172], [221, 178, 173], [219, 177, 174], [219, 177, 174], [220, 178, 175], [220, 178, 173], [220, 178, 173], [220, 176, 174], [220, 178, 175], [220, 178, 175], [219, 177, 174], [219, 177, 174], [218, 179, 175], [218, 179, 173], [218, 179, 175], [217, 178, 172], [220, 178, 173], [219, 177, 174], [218, 179, 173], [217, 178, 174], [219, 177, 174], [218, 179, 175], [220, 178, 175], [220, 178, 173], [222, 178, 176], [221, 179, 174], [220, 176, 174], [219, 177, 174], [221, 179, 174], [218, 179, 175], [217, 178, 172], [218, 179, 175], [219, 177, 174], [219, 177, 174], [220, 178, 175], [219, 177, 174], [219, 177, 174], [218, 179, 175], [217, 178, 174], [217, 178, 174], [217, 178, 174], [218, 179, 173], [220, 176, 176], [217, 178, 174], [220, 178, 175], [220, 176, 174], [220, 176, 174], [218, 179, 175], [219, 177, 174], [218, 176, 173], [217, 178, 172], [217, 177, 176], [217, 177, 176], [218, 178, 177], [218, 179, 175], [217, 177, 176], [217, 177, 176], [217, 177, 176], [217, 179, 177], [217, 177, 176], [217, 177, 176], [219, 177, 174], [218, 179, 175], [217, 178, 172], [216, 177, 173], [216, 174, 173], [219, 177, 174], [219, 177, 174], [218, 178, 177], [219, 177, 174], [219, 177, 174], [220, 178, 175], [220, 178, 175], [218, 179, 175], [220, 178, 173], [220, 178, 175], [218, 176, 173], [218, 174, 172], [220, 176, 174], [221, 178, 173], [219, 177, 176], [219, 177, 176], [219, 177, 172], [220, 176, 174], [219, 177, 174], [219, 175, 173], [220, 176, 174], [218, 176, 173], [221, 177, 175], [219, 177, 174], [219, 177, 174], [219, 175, 173], [219, 177, 174], [216, 176, 175], [215, 175, 174], [218, 174, 172], [220, 176, 174], [219, 175, 173], [219, 177, 174], [220, 176, 176], [219, 175, 173], [218, 174, 174], [219, 177, 174], [220, 176, 174], [219, 175, 173], [218, 176, 175], [219, 175, 175], [219, 175, 173], [220, 176, 176], [218, 174, 172], [219, 175, 173], [219, 176, 171], [218, 176, 173], [219, 175, 173], [219, 175, 173], [219, 177, 176], [218, 176, 173], [216, 176, 175], [217, 177, 176], [218, 176, 175], [219, 177, 176], [217, 178, 174], [218, 176, 173], [218, 176, 173], [219, 177, 174], [219, 177, 174], [217, 178, 174], [217, 177, 176], [218, 176, 173], [217, 178, 174], [218, 176, 173], [218, 176, 173], [217, 178, 174], [220, 176, 176], [219, 175, 173], [220, 176, 174], [219, 175, 173], [218, 176, 173], [219, 175, 173], [220, 178, 173], [219, 177, 174], [219, 177, 174], [220, 176, 174], [220, 176, 174], [219, 175, 173], [220, 178, 175], [218, 176, 173], [219, 175, 173], [217, 175, 174], [215, 175, 174], [215, 178, 173], [219, 175, 173], [220, 176, 174], [220, 176, 174], [220, 176, 174], [218, 176, 173], [217, 177, 176], [218, 176, 173], [220, 176, 174], [218, 176, 173], [218, 176, 171], [219, 177, 174], [217, 175, 172], [218, 176, 171], [218, 176, 173], [219, 177, 174], [218, 176, 173], [219, 176, 171], [219, 176, 171], [218, 176, 173], [217, 178, 174], [218, 176, 173], [217, 177, 176], [219, 176, 171], [218, 176, 173], [218, 176, 171], [218, 175, 170], [217, 175, 170], [217, 175, 172], [217, 175, 172], [218, 176, 173], [216, 172, 170], [217, 175, 172], [218, 174, 172], [219, 176, 171], [218, 176, 173], [218, 174, 172], [218, 175, 170], [218, 174, 172], [218, 174, 172], [218, 176, 173], [218, 175, 170], [218, 176, 171], [219, 177, 174], [218, 174, 172], [217, 175, 170], [217, 175, 172], [218, 175, 168], [218, 174, 172], [217, 175, 172], [214, 175, 171], [215, 173, 170], [216, 174, 171], [215, 176, 172], [217, 175, 170], [218, 175, 170], [216, 174, 171], [218, 175, 170], [218, 174, 172], [218, 176, 173], [218, 176, 171], [219, 175, 173], [218, 176, 173], [217, 175, 172], [217, 175, 172], [218, 175, 170], [218, 176, 173], [216, 177, 173], [218, 176, 173], [218, 176, 173], [216, 177, 173], [215, 175, 174], [217, 178, 174], [216, 176, 175], [218, 176, 173], [218, 176, 173], [219, 175, 173], [218, 176, 173], [219, 176, 171], [216, 177, 173], [218, 176, 173], [217, 175, 170], [216, 174, 169], [218, 176, 171], [217, 178, 172], [218, 176, 171], [218, 176, 173], [216, 177, 171], [217, 178, 174], [217, 178, 174], [217, 175, 170], [219, 177, 174], [219, 175, 173], [218, 176, 173], [217, 175, 172], [217, 177, 176], [217, 178, 172], [218, 175, 170], [218, 174, 172], [217, 173, 171], [219, 177, 172], [218, 176, 173], [218, 176, 173], [216, 177, 173], [218, 176, 173], [217, 177, 176], [218, 176, 173], [219, 177, 174], [219, 175, 173], [218, 176, 173], [219, 177, 174], [216, 177, 173], [218, 176, 173], [217, 175, 172], [218, 176, 173], [216, 177, 171], [217, 175, 172], [217, 175, 172], [215, 175, 174], [218, 176, 173], [219, 177, 174], [216, 176, 175], [218, 176, 173], [218, 176, 173], [218, 176, 173], [219, 177, 174], [216, 177, 173], [219, 177, 174], [216, 177, 173], [218, 176, 171], [217, 175, 172], [219, 177, 176], [218, 176, 173], [217, 175, 170], [219, 177, 172], [216, 177, 173], [219, 176, 171], [218, 176, 173], [219, 176, 171], [220, 176, 174], [219, 176, 171], [218, 176, 171], [220, 177, 172], [219, 176, 171], [219, 175, 173], [219, 177, 172], [219, 175, 173], [219, 176, 171], [219, 175, 173], [219, 175, 173], [218, 176, 171], [218, 176, 173], [218, 176, 173], [219, 176, 171], [220, 177, 172], [219, 177, 172], [220, 178, 173], [220, 177, 172], [219, 175, 173], [218, 176, 171], [219, 175, 173], [220, 177, 172], [220, 177, 172], [218, 176, 173], [218, 176, 173], [220, 177, 172], [219, 177, 172], [219, 177, 174], [219, 177, 174], [218, 176, 171], [218, 176, 173], [217, 175, 170], [217, 175, 172], [218, 175, 170], [216, 177, 173], [217, 175, 170], [218, 174, 172], [215, 176, 172], [218, 174, 172], [215, 176, 172], [218, 176, 173], [220, 176, 174], [217, 175, 172], [217, 175, 172], [217, 175, 170], [218, 175, 170], [219, 176, 171], [218, 176, 173], [218, 176, 171], [220, 177, 172], [218, 176, 173], [219, 176, 171], [218, 175, 170], [219, 176, 171], [219, 176, 171], [218, 176, 173], [218, 176, 173], [219, 176, 171], [217, 178, 174], [217, 178, 174], [219, 175, 173], [218, 176, 171], [218, 176, 173], [219, 177, 174], [218, 176, 171], [219, 176, 171], [216, 177, 173], [217, 175, 172], [218, 176, 171], [217, 174, 169], [217, 175, 172], [218, 176, 173], [217, 175, 172], [218, 176, 171], [218, 176, 171], [216, 174, 171], [218, 176, 171], [218, 176, 171], [219, 176, 171], [218, 176, 173], [217, 178, 172], [217, 178, 174], [220, 176, 174], [219, 175, 173], [217, 175, 172], [218, 175, 170], [217, 175, 172], [216, 177, 173], [217, 175, 170], [218, 176, 173], [218, 176, 171], [218, 176, 173], [218, 176, 173], [218, 176, 173], [218, 175, 170], [219, 175, 173], [218, 176, 173], [218, 177, 169], [218, 176, 173], [219, 176, 171], [218, 176, 173], [217, 175, 172], [217, 175, 172], [215, 176, 172], [218, 174, 172], [217, 175, 172], [218, 176, 173], [218, 176, 171], [219, 176, 171], [217, 175, 170], [218, 176, 173], [217, 175, 170], [218, 176, 173], [218, 176, 173], [218, 176, 173], [216, 177, 173], [216, 177, 173], [216, 177, 173], [219, 176, 171], [218, 176, 173], [216, 177, 173], [216, 177, 173], [216, 177, 173], [218, 176, 173], [219, 176, 171], [215, 176, 172], [215, 176, 172], [215, 176, 172], [216, 177, 173], [216, 179, 174], [218, 176, 173], [217, 175, 172], [217, 174, 169], [218, 175, 170], [218, 175, 170], [217, 173, 171], [217, 174, 169], [219, 176, 171], [217, 175, 172], [218, 175, 170], [217, 175, 172], [218, 176, 171], [217, 178, 172], [217, 175, 172], [218, 176, 173], [218, 174, 172], [218, 176, 173], [215, 176, 172], [216, 177, 173], [219, 175, 173], [218, 174, 172], [217, 175, 170], [218, 174, 172], [219, 176, 171], [218, 175, 170], [218, 174, 172], [217, 175, 172], [218, 176, 173], [216, 178, 176], [216, 177, 171], [216, 177, 173], [218, 176, 173], [217, 178, 172], [217, 178, 174], [219, 177, 172], [217, 178, 172], [217, 178, 174], [217, 178, 172], [215, 177, 175], [215, 178, 173], [218, 179, 173], [218, 176, 171], [218, 176, 173], [216, 178, 176], [216, 177, 173], [216, 178, 176], [217, 175, 172], [218, 176, 173], [218, 176, 171], [218, 176, 173], [216, 176, 175], [216, 177, 173], [216, 177, 171], [216, 177, 173], [215, 172, 167], [217, 175, 170], [218, 175, 170], [217, 175, 172], [219, 177, 174], [219, 177, 172], [216, 174, 169], [217, 175, 172], [218, 176, 173], [218, 176, 173], [218, 176, 175], [218, 176, 175], [218, 176, 171], [216, 177, 171], [216, 177, 171], [217, 173, 171], [217, 175, 172], [217, 175, 172], [217, 175, 170], [218, 176, 173], [216, 174, 171], [218, 176, 171], [219, 176, 171], [218, 174, 172], [216, 174, 171], [218, 176, 171], [216, 177, 173], [217, 175, 172], [217, 175, 172], [217, 175, 170], [217, 175, 172], [216, 174, 171], [217, 175, 170], [217, 175, 170], [217, 175, 172], [214, 175, 171], [215, 176, 172], [217, 175, 170], [217, 175, 170], [215, 176, 172], [217, 175, 172], [218, 175, 170], [214, 175, 171], [217, 175, 170], [216, 174, 171], [217, 175, 172], [217, 175, 170], [218, 176, 173], [218, 175, 170], [219, 175, 173], [219, 176, 171], [215, 176, 170], [215, 176, 170], [214, 175, 171], [216, 174, 171], [214, 174, 173], [216, 172, 170], [217, 175, 172], [216, 177, 173], [217, 175, 170], [217, 175, 170], [216, 177, 173], [216, 177, 173], [216, 177, 171], [217, 175, 170], [215, 176, 172], [215, 176, 170], [215, 176, 170], [217, 175, 172], [216, 177, 173], [218, 176, 173], [217, 175, 170], [217, 178, 172], [217, 175, 172], [218, 176, 173], [215, 176, 170], [216, 177, 171], [216, 177, 171], [218, 176, 171], [216, 177, 171], [215, 176, 172], [216, 174, 169], [217, 175, 172], [215, 176, 170], [215, 175, 174], [215, 176, 172], [218, 176, 171], [215, 176, 172], [217, 175, 172], [215, 176, 172], [217, 175, 172], [218, 176, 171], [216, 177, 173], [215, 176, 170], [216, 177, 171], [217, 175, 170], [217, 175, 172], [217, 175, 172], [218, 176, 171], [218, 176, 171], [218, 176, 173], [218, 176, 173], [216, 177, 171], [216, 177, 173], [216, 177, 171], [216, 177, 171], [216, 177, 173], [218, 176, 173], [215, 176, 172], [218, 175, 170], [216, 177, 171], [216, 177, 171], [218, 176, 171], [217, 178, 172], [218, 176, 171], [216, 177, 171], [216, 177, 171], [217, 178, 174], [218, 176, 173], [217, 178, 172], [218, 176, 173], [216, 179, 174], [218, 176, 171], [216, 177, 173], [216, 177, 171], [215, 176, 170], [217, 178, 172], [216, 177, 173], [217, 175, 172], [215, 178, 173], [218, 176, 173], [216, 177, 173], [218, 176, 173], [216, 177, 171], [218, 176, 171], [218, 176, 171], [216, 177, 173], [217, 175, 172], [218, 176, 173], [219, 178, 170], [216, 177, 171], [216, 177, 173], [218, 176, 171], [217, 178, 172], [217, 175, 170], [217, 175, 170], [217, 175, 170], [218, 176, 171], [216, 177, 173], [217, 175, 172], [216, 174, 171], [218, 176, 173], [218, 174, 172], [218, 175, 170], [216, 174, 171], [218, 176, 171], [218, 177, 169], [217, 175, 170], [218, 176, 171], [218, 176, 171], [218, 176, 171], [217, 175, 170], [218, 175, 170], [215, 176, 170], [217, 175, 170], [215, 176, 170], [214, 175, 171], [215, 175, 174], [217, 175, 172], [216, 177, 173], [215, 176, 172], [216, 174, 169], [216, 177, 173], [216, 177, 173], [216, 177, 173], [215, 175, 174], [218, 176, 171], [217, 175, 172], [216, 177, 173], [217, 175, 172], [215, 176, 172], [216, 174, 171], [218, 176, 173], [217, 175, 170], [215, 176, 172], [217, 175, 172], [218, 176, 173], [217, 175, 170], [216, 175, 167], [218, 176, 171], [219, 175, 173], [218, 176, 171], [216, 177, 171], [217, 175, 172], [216, 177, 171], [216, 177, 171], [215, 176, 170], [217, 174, 169], [218, 176, 173], [218, 176, 173], [217, 175, 170], [218, 176, 171], [218, 175, 170], [216, 174, 169], [218, 174, 172], [218, 176, 173], [218, 176, 173], [219, 176, 171], [216, 177, 173], [217, 175, 170], [217, 174, 169], [218, 176, 171], [218, 175, 170], [216, 174, 171], [216, 172, 170], [217, 174, 169], [213, 174, 170], [216, 172, 170], [216, 174, 171], [218, 175, 170], [218, 176, 171], [216, 174, 171], [218, 176, 171], [217, 175, 172], [219, 176, 171], [218, 175, 170], [218, 175, 170], [218, 174, 172], [217, 175, 172], [219, 175, 173], [218, 174, 172], [216, 174, 171], [218, 176, 173], [218, 174, 172], [219, 176, 171], [218, 176, 171], [217, 175, 172], [217, 175, 172], [218, 176, 171], [218, 175, 170], [217, 175, 172], [217, 175, 170], [217, 175, 172], [218, 175, 170], [218, 175, 170], [217, 175, 172], [218, 174, 172], [216, 172, 170], [216, 173, 168], [218, 176, 171], [217, 175, 170], [216, 174, 171], [215, 176, 172], [215, 176, 172], [215, 176, 172], [219, 176, 171], [217, 175, 172], [218, 176, 171], [219, 176, 171], [216, 174, 169], [217, 173, 171], [217, 173, 171], [218, 174, 172], [218, 174, 172], [216, 177, 171], [218, 175, 170], [218, 175, 170], [218, 174, 172], [218, 176, 173], [219, 176, 171], [217, 175, 170], [216, 173, 168], [218, 175, 170], [218, 175, 170], [217, 173, 171], [217, 175, 172], [217, 174, 169], [216, 174, 171], [217, 175, 170], [218, 175, 170], [217, 175, 170], [217, 175, 170], [218, 175, 170], [218, 174, 172], [215, 176, 172], [217, 175, 170], [219, 176, 171], [217, 175, 170], [218, 175, 170], [218, 175, 170], [217, 175, 170], [218, 174, 172], [218, 174, 172], [218, 176, 171], [217, 175, 172], [219, 176, 171], [217, 175, 170], [217, 175, 170], [218, 175, 170], [218, 176, 171], [218, 174, 172], [216, 174, 171], [217, 175, 172], [217, 175, 170], [216, 174, 171], [218, 174, 172], [214, 175, 171], [217, 174, 169], [219, 177, 172], [216, 174, 171], [218, 175, 170], [217, 175, 170], [218, 176, 173], [216, 174, 169], [218, 174, 172], [219, 177, 172], [219, 177, 172], [216, 174, 169], [217, 175, 172], [216, 174, 169], [217, 176, 168], [214, 175, 169], [216, 174, 169], [215, 176, 170], [215, 176, 172], [217, 175, 172], [217, 175, 172], [218, 174, 172], [217, 175, 172], [218, 176, 171], [218, 175, 170], [220, 177, 172], [217, 175, 174], [215, 176, 172], [217, 175, 172], [218, 176, 171], [218, 176, 171], [218, 176, 173], [218, 176, 173], [217, 175, 172], [219, 177, 174], [218, 176, 173], [217, 178, 174], [218, 176, 171], [218, 176, 173], [217, 178, 174], [216, 177, 173], [218, 176, 171], [217, 178, 174], [217, 178, 174], [217, 178, 174], [217, 178, 174], [219, 179, 180], [218, 179, 175], [217, 180, 175], [219, 179, 178], [218, 178, 177], [215, 175, 174], [220, 178, 175], [218, 180, 180], [219, 179, 178], [218, 180, 178], [217, 180, 175], [218, 179, 175], [219, 181, 179], [219, 180, 176], [218, 178, 177], [218, 178, 177], [218, 178, 177], [218, 179, 175], [218, 178, 177], [218, 178, 177], [218, 179, 175], [221, 179, 176], [223, 181, 178], [223, 181, 178], [220, 178, 175], [221, 179, 176], [219, 180, 176], [222, 180, 175], [220, 177, 172], [220, 178, 173], [224, 181, 176], [222, 180, 177], [222, 180, 177], [223, 181, 178], [222, 180, 177], [218, 179, 173], [218, 179, 173], [221, 179, 176], [221, 178, 173], [222, 179, 174], [220, 178, 175], [221, 178, 173], [221, 177, 175], [221, 179, 176], [221, 177, 175], [219, 180, 176], [220, 178, 175], [220, 176, 174], [220, 178, 175], [221, 177, 175], [220, 178, 175], [218, 176, 173], [216, 177, 171], [218, 179, 175], [221, 178, 173], [220, 178, 175], [220, 178, 175], [220, 178, 173], [220, 178, 175], [219, 177, 174], [217, 177, 176], [220, 178, 173], [221, 178, 173], [219, 177, 174], [220, 178, 173], [220, 176, 174]]
[[177, 141, 127], [178, 140, 127], [180, 140, 125], [178, 140, 127], [178, 140, 127], [179, 139, 126], [178, 141, 125], [177, 139, 126], [177, 140, 124], [176, 140, 124], [177, 140, 124], [178, 141, 125], [177, 139, 126], [177, 139, 126], [178, 141, 125], [179, 139, 126], [177, 141, 127], [177, 139, 126], [178, 140, 127], [178, 140, 127], [178, 141, 125], [178, 140, 127], [178, 140, 127], [178, 141, 125], [179, 139, 126], [178, 140, 127], [178, 140, 127], [178, 140, 127], [178, 140, 127], [178, 140, 127], [178, 140, 127], [178, 141, 125], [177, 139, 126], [178, 140, 127], [177, 139, 126], [177, 139, 126], [177, 140, 124], [178, 140, 127], [178, 140, 127], [178, 141, 125], [178, 141, 125], [179, 139, 126], [177, 140, 124], [177, 139, 126], [180, 140, 125], [178, 140, 127], [178, 140, 127], [180, 140, 127], [177, 139, 126], [177, 139, 126], [178, 140, 127], [178, 140, 127], [178, 140, 129], [178, 141, 125], [180, 140, 127], [178, 140, 127], [178, 140, 127], [177, 139, 126], [177, 139, 126], [177, 139, 126], [179, 137, 125], [179, 139, 126], [179, 139, 126], [177, 139, 126], [178, 138, 123], [179, 139, 126], [179, 139, 124], [179, 139, 126], [180, 138, 126], [179, 139, 126], [180, 138, 124], [179, 139, 126], [180, 140, 125], [178, 140, 127], [179, 139, 126], [178, 140, 127], [179, 139, 124], [179, 139, 126], [179, 137, 125], [179, 139, 124], [180, 138, 126], [177, 139, 128], [177, 139, 126], [177, 139, 126], [179, 139, 124], [180, 140, 127], [177, 140, 124], [177, 139, 126], [178, 140, 127], [178, 141, 125], [177, 139, 126], [178, 141, 125], [178, 140, 127], [178, 141, 125], [178, 140, 127], [178, 141, 125], [179, 139, 124], [179, 139, 126], [177, 139, 126], [177, 139, 126], [177, 140, 124], [179, 139, 124], [179, 139, 124], [177, 139, 126], [180, 138, 126], [178, 141, 125], [177, 139, 126], [177, 139, 126], [178, 140, 127], [177, 141, 127], [178, 140, 127], [178, 140, 127], [177, 139, 126], [177, 139, 126], [177, 139, 128], [178, 138, 123], [179, 139, 126], [179, 139, 126], [177, 139, 126], [178, 141, 125], [178, 140, 127], [178, 141, 125], [177, 139, 126], [177, 139, 126], [177, 139, 126], [178, 140, 127], [178, 141, 125], [177, 139, 126], [178, 141, 125], [178, 140, 127], [178, 140, 127], [180, 140, 125], [179, 139, 124], [178, 140, 129], [178, 140, 127], [177, 139, 126], [180, 140, 125], [180, 140, 125], [178, 140, 127], [179, 139, 122], [177, 140, 124], [177, 140, 124], [177, 140, 124], [180, 140, 125], [178, 140, 127], [180, 140, 127], [178, 140, 127], [178, 140, 127], [177, 139, 126], [178, 140, 127], [178, 140, 129], [178, 140, 127], [177, 140, 124], [178, 138, 123], [177, 139, 126], [177, 140, 124], [178, 140, 127], [178, 141, 125], [178, 140, 127], [177, 139, 126], [178, 140, 127], [178, 141, 125], [178, 140, 127], [177, 139, 126], [178, 141, 125], [180, 140, 127], [179, 142, 126], [178, 141, 125], [179, 142, 126], [178, 140, 127], [178, 141, 125], [178, 141, 125], [178, 140, 127], [177, 139, 126], [178, 140, 127], [177, 140, 124], [177, 139, 126], [178, 140, 127], [180, 140, 127], [178, 141, 125], [178, 141, 125], [178, 141, 125], [180, 140, 125], [178, 140, 127], [178, 140, 127], [177, 141, 127], [178, 141, 125], [178, 141, 125], [178, 140, 127], [178, 141, 125], [178, 140, 127], [178, 140, 127], [178, 141, 125], [178, 141, 125], [178, 141, 125], [179, 139, 126], [178, 140, 127], [178, 141, 125], [177, 140, 124], [178, 140, 127], [178, 140, 127], [178, 141, 125], [178, 140, 127], [177, 139, 126], [178, 140, 127], [177, 141, 129], [178, 140, 129], [177, 139, 126], [178, 140, 127], [178, 140, 127], [177, 141, 127], [178, 140, 127], [178, 140, 129], [178, 140, 127], [178, 140, 127], [179, 142, 124], [178, 140, 127], [178, 140, 127], [177, 139, 126], [179, 141, 128], [178, 141, 125], [178, 140, 127], [179, 142, 126], [179, 142, 126], [178, 141, 125], [178, 141, 125], [179, 142, 126], [178, 140, 127], [178, 140, 127], [178, 141, 125], [178, 141, 125], [178, 140, 127], [178, 141, 125], [178, 141, 125], [178, 141, 125], [177, 139, 126], [178, 142, 126], [180, 140, 125], [177, 141, 127], [178, 141, 125], [178, 141, 125], [178, 141, 125], [178, 142, 128], [179, 141, 128], [177, 141, 129], [178, 140, 127], [178, 140, 127], [178, 142, 126], [178, 142, 126], [178, 142, 128], [178, 141, 125], [178, 140, 127], [178, 140, 127], [178, 141, 125], [178, 140, 127], [177, 141, 127], [178, 140, 127], [177, 139, 126], [177, 139, 126], [177, 139, 126], [179, 139, 124], [180, 140, 125], [177, 139, 126], [179, 139, 126], [176, 138, 125], [177, 140, 124], [179, 139, 124], [177, 139, 126], [176, 138, 125], [176, 138, 125], [177, 139, 126], [179, 139, 124], [176, 138, 125], [176, 138, 125], [176, 139, 123], [178, 138, 123], [178, 137, 127], [179, 139, 126], [178, 138, 123], [176, 138, 125], [178, 138, 125], [176, 138, 125], [176, 138, 125], [178, 138, 125], [176, 138, 125], [176, 139, 123], [178, 138, 123], [178, 138, 125], [176, 139, 123], [176, 139, 123], [178, 136, 124], [179, 137, 123], [176, 138, 125], [178, 138, 123], [178, 138, 125], [179, 137, 123], [179, 139, 126], [176, 139, 123], [177, 140, 124], [178, 138, 123], [179, 137, 125], [179, 137, 123], [176, 138, 125], [176, 138, 125], [177, 140, 124], [177, 140, 124], [177, 139, 126], [179, 139, 126], [176, 139, 123], [178, 138, 123], [178, 137, 127], [178, 138, 125], [176, 138, 125], [178, 138, 125], [178, 138, 125], [176, 138, 125], [176, 138, 125], [176, 138, 125], [178, 138, 123], [176, 138, 125], [177, 140, 124], [177, 140, 124], [179, 139, 126], [176, 139, 123], [177, 139, 126], [176, 138, 125], [179, 139, 124], [179, 137, 125], [177, 139, 126], [176, 138, 125], [177, 139, 126], [177, 139, 126], [176, 138, 125], [176, 138, 125], [176, 138, 125], [176, 138, 125], [176, 138, 125], [177, 139, 126], [176, 138, 125], [177, 140, 124], [176, 138, 125], [177, 139, 126], [178, 140, 127], [177, 139, 128], [177, 139, 126], [179, 139, 126], [176, 140, 126], [179, 139, 124], [178, 138, 123], [177, 141, 127], [177, 139, 126], [176, 139, 123], [177, 140, 124], [177, 140, 124], [179, 139, 124], [176, 138, 125], [177, 139, 126], [179, 139, 126], [179, 139, 124], [176, 138, 125], [177, 140, 124], [177, 139, 126], [177, 139, 126], [177, 140, 124], [177, 139, 126], [177, 139, 126], [178, 140, 127], [177, 140, 124], [176, 138, 125], [177, 140, 124], [177, 139, 126], [176, 138, 125], [177, 139, 126], [179, 139, 126], [176, 138, 125], [177, 140, 124], [177, 140, 124], [177, 139, 126], [177, 140, 124], [177, 139, 126], [177, 139, 126], [177, 140, 124], [179, 139, 124], [177, 139, 126], [178, 140, 127], [177, 139, 126], [178, 141, 125], [177, 139, 126], [177, 140, 124], [176, 140, 124], [176, 138, 125], [176, 139, 123], [176, 138, 125], [179, 139, 124], [177, 140, 124], [177, 139, 126], [177, 140, 124], [177, 139, 126], [176, 138, 125], [177, 139, 126], [177, 139, 126], [176, 138, 125], [179, 139, 126], [177, 140, 124], [177, 139, 126], [176, 138, 125], [177, 140, 124], [177, 139, 126], [176, 138, 125], [177, 140, 124], [177, 139, 126], [179, 139, 126], [177, 139, 126], [178, 138, 125], [177, 139, 126], [178, 138, 123], [178, 141, 125], [177, 139, 126], [177, 139, 126], [178, 141, 125], [178, 140, 127], [177, 139, 126], [177, 139, 126], [178, 140, 127], [180, 140, 125], [178, 140, 129], [179, 139, 126], [178, 140, 127], [180, 138, 126], [178, 141, 125], [177, 140, 124], [177, 139, 126], [177, 139, 126], [178, 141, 125], [177, 139, 126], [179, 139, 124], [178, 141, 125], [178, 141, 125], [178, 141, 125], [177, 139, 126], [178, 140, 127], [178, 141, 125], [178, 141, 125], [180, 140, 127], [178, 140, 127], [177, 139, 126], [177, 139, 126], [177, 139, 126], [178, 140, 127], [180, 140, 125], [177, 139, 126], [177, 139, 126], [177, 141, 129], [177, 140, 124], [178, 140, 127], [178, 140, 127], [179, 139, 124], [178, 140, 127], [178, 140, 127], [178, 140, 127], [178, 141, 125], [177, 139, 126], [177, 139, 126], [178, 141, 125], [178, 140, 127], [179, 139, 126], [178, 140, 127], [177, 139, 126], [179, 139, 126], [180, 140, 125], [178, 141, 125], [178, 140, 127], [178, 141, 125], [178, 140, 127], [178, 140, 127], [178, 141, 125], [178, 142, 128], [180, 138, 126], [180, 140, 125], [178, 140, 127], [177, 139, 126], [178, 141, 125], [178, 141, 125], [178, 141, 125], [181, 139, 125], [180, 140, 127], [178, 140, 127], [178, 141, 125], [180, 140, 125], [178, 141, 125], [177, 139, 126], [178, 141, 125], [177, 140, 124], [178, 140, 129], [178, 140, 127], [178, 140, 127], [178, 140, 127], [178, 140, 127], [177, 139, 126], [178, 140, 127], [178, 140, 127], [180, 140, 127], [179, 141, 128], [180, 140, 125], [178, 141, 125], [178, 140, 127], [179, 142, 126], [178, 140, 127], [180, 140, 125], [179, 142, 126], [179, 142, 126], [178, 141, 125], [180, 140, 125], [178, 140, 127], [178, 140, 127], [178, 141, 125], [178, 141, 125], [177, 139, 126], [178, 140, 127], [180, 140, 125], [177, 141, 125], [178, 141, 125], [179, 142, 126], [178, 140, 127], [179, 142, 126], [178, 140, 127], [178, 141, 125], [178, 141, 125], [177, 141, 127], [178, 142, 126], [178, 140, 127], [179, 139, 124], [178, 141, 125], [177, 139, 126], [177, 139, 126], [177, 140, 124], [177, 139, 126], [177, 139, 126], [177, 139, 126], [177, 140, 124], [179, 139, 126], [178, 140, 127], [180, 140, 125], [179, 139, 124], [178, 141, 125], [178, 140, 127], [178, 140, 127], [178, 140, 127], [178, 141, 125], [178, 140, 127], [177, 139, 126], [177, 139, 126], [178, 141, 125], [179, 139, 122], [180, 138, 126], [177, 139, 126], [177, 139, 126], [179, 139, 124], [176, 139, 123], [177, 140, 124], [177, 139, 128], [179, 139, 124], [176, 138, 125], [179, 139, 126], [176, 140, 126], [177, 139, 126], [177, 140, 124], [178, 140, 127], [178, 141, 125], [177, 139, 126], [178, 140, 127], [177, 139, 126], [176, 138, 125], [176, 138, 125], [178, 138, 123], [177, 140, 124], [177, 139, 126], [177, 139, 126], [176, 138, 125], [177, 139, 126], [177, 139, 126], [177, 139, 126], [176, 138, 125], [179, 139, 124], [177, 140, 124], [176, 139, 123], [179, 139, 126], [177, 140, 124], [179, 139, 126], [177, 140, 124], [179, 139, 126], [178, 138, 125], [179, 139, 124], [179, 137, 125], [176, 138, 125], [178, 138, 125], [176, 138, 125], [176, 138, 125], [179, 137, 125], [176, 138, 125], [178, 138, 125], [178, 138, 125], [178, 138, 125], [179, 139, 124], [176, 139, 123], [176, 138, 125], [178, 137, 127], [177, 140, 124], [177, 139, 126], [179, 139, 124], [179, 139, 124], [177, 139, 126], [177, 140, 124], [177, 139, 126], [178, 138, 123], [179, 139, 124], [177, 139, 126], [176, 138, 125], [179, 139, 126], [179, 139, 124], [178, 138, 123], [178, 138, 125], [177, 140, 124], [179, 139, 126], [176, 139, 123], [177, 139, 126], [177, 140, 124], [179, 139, 124], [179, 139, 124], [179, 139, 124], [179, 139, 124], [177, 139, 126], [179, 139, 126], [178, 141, 125], [179, 139, 124], [177, 139, 126], [178, 141, 125], [177, 139, 126], [177, 139, 126], [180, 140, 125], [179, 139, 126], [177, 139, 126], [177, 139, 126], [179, 139, 126], [180, 140, 125], [180, 139, 122], [179, 139, 124], [177, 139, 126], [177, 140, 124], [177, 140, 124], [178, 140, 127], [180, 140, 127], [178, 141, 125], [179, 139, 126], [178, 141, 125], [177, 140, 122], [178, 141, 125], [179, 139, 124], [177, 140, 124], [178, 141, 125], [178, 140, 127], [180, 140, 125], [177, 139, 126], [178, 140, 127], [178, 140, 127], [178, 140, 127], [177, 139, 126], [177, 140, 124], [177, 141, 127], [177, 140, 124], [179, 139, 124], [176, 140, 126], [178, 140, 127], [178, 140, 127], [178, 141, 125], [178, 141, 125], [180, 140, 125], [177, 139, 126], [177, 139, 126], [177, 140, 124], [179, 139, 122], [177, 139, 126], [178, 141, 125], [178, 140, 127], [177, 139, 126], [177, 140, 124], [176, 140, 124], [176, 140, 124], [177, 139, 126], [178, 141, 125], [176, 139, 123], [178, 140, 127], [177, 139, 126], [178, 141, 125], [177, 140, 124], [177, 139, 126], [177, 140, 124], [177, 139, 126], [178, 138, 125], [177, 139, 126], [176, 138, 125], [176, 139, 123], [177, 140, 124], [177, 140, 124], [177, 140, 124], [176, 138, 127], [177, 139, 126], [177, 139, 126], [177, 139, 126], [177, 140, 124], [178, 140, 127], [178, 140, 127], [178, 141, 125], [178, 140, 127], [177, 139, 126], [177, 139, 126], [180, 140, 125], [177, 139, 126], [177, 140, 124], [177, 140, 124], [179, 139, 124], [177, 139, 126], [176, 138, 125], [177, 140, 124], [177, 139, 126], [177, 140, 124], [177, 139, 126], [177, 139, 126], [176, 140, 124], [177, 140, 124], [177, 139, 126], [176, 138, 125], [177, 139, 126], [177, 139, 126], [177, 140, 124], [177, 139, 126], [177, 140, 124], [176, 139, 123], [177, 139, 126], [177, 139, 126], [177, 139, 126], [177, 140, 124], [179, 139, 124], [179, 139, 124], [178, 141, 125], [178, 141, 125], [178, 140, 129], [177, 139, 126], [176, 138, 125], [177, 139, 126], [177, 139, 126], [179, 139, 126], [178, 141, 125], [177, 139, 126], [177, 139, 126], [179, 139, 126], [178, 141, 125], [177, 139, 126], [177, 140, 124], [177, 139, 126], [177, 141, 127], [177, 140, 124], [177, 140, 124], [177, 140, 124], [177, 139, 126], [177, 140, 124], [177, 140, 124], [179, 139, 126], [178, 141, 125], [178, 141, 125], [177, 139, 126], [177, 139, 126], [179, 139, 126], [177, 139, 126], [178, 141, 125], [178, 140, 127], [178, 141, 125], [178, 141, 125], [178, 140, 127], [178, 141, 125], [178, 140, 127], [178, 140, 127], [180, 140, 125], [176, 140, 124], [178, 141, 125], [178, 141, 125], [177, 139, 126], [177, 139, 126], [177, 139, 126], [177, 139, 126], [179, 142, 126], [178, 140, 127], [178, 140, 127], [178, 141, 125], [181, 141, 126], [178, 140, 127], [180, 140, 125], [180, 140, 127], [178, 141, 125], [178, 141, 125], [177, 140, 124], [179, 141, 128], [177, 141, 127], [179, 142, 126], [178, 141, 125], [178, 140, 127], [178, 141, 125], [178, 140, 127], [179, 139, 124], [178, 140, 127], [178, 140, 127], [179, 142, 126], [178, 141, 125], [180, 140, 125], [180, 140, 125], [180, 140, 125], [179, 139, 124], [179, 139, 126], [178, 141, 125], [180, 140, 125], [178, 141, 125], [179, 142, 126], [180, 140, 125], [179, 142, 126], [179, 142, 126], [179, 142, 126], [178, 141, 125], [179, 142, 126], [178, 140, 127], [178, 141, 125], [177, 139, 126], [178, 141, 123], [177, 140, 124], [178, 141, 125], [178, 141, 123], [179, 139, 126], [177, 139, 126], [178, 141, 123], [180, 140, 125], [178, 140, 127], [178, 140, 127], [178, 141, 125], [180, 140, 125], [178, 141, 125], [178, 140, 127], [178, 140, 127], [179, 141, 128], [177, 140, 124], [178, 141, 125], [180, 140, 123], [179, 139, 124], [180, 140, 125], [177, 139, 126], [179, 139, 124], [179, 139, 124], [179, 139, 124], [179, 139, 124], [177, 140, 124], [177, 139, 126], [178, 141, 125], [179, 139, 124], [177, 139, 126], [179, 139, 124], [177, 141, 127], [178, 140, 127], [178, 141, 125], [178, 141, 125], [178, 141, 125], [177, 139, 128], [177, 139, 126], [178, 138, 123], [179, 139, 122], [176, 138, 125], [176, 138, 125], [176, 138, 125], [176, 138, 125], [178, 136, 124], [178, 136, 122], [178, 138, 123], [176, 138, 125], [178, 138, 125], [176, 139, 123], [179, 137, 123], [176, 138, 125], [178, 138, 125], [180, 138, 126], [176, 138, 125], [177, 139, 126], [178, 138, 123], [179, 139, 124], [176, 138, 125], [176, 138, 125], [178, 138, 125], [176, 138, 125], [179, 137, 125], [178, 138, 125], [178, 136, 124], [177, 137, 124], [177, 137, 124], [176, 138, 125], [178, 136, 124], [177, 137, 124], [179, 137, 125], [178, 138, 125], [178, 136, 122], [178, 138, 125], [179, 137, 125], [178, 138, 125], [179, 137, 123], [179, 139, 126], [179, 139, 126], [178, 138, 125], [180, 138, 126], [178, 138, 123], [179, 137, 125], [178, 138, 123], [179, 137, 125], [177, 137, 122], [178, 136, 124], [179, 137, 123], [178, 136, 124], [178, 136, 122], [176, 138, 125], [179, 137, 125], [177, 137, 124], [179, 139, 124], [178, 138, 123], [179, 137, 125], [179, 137, 125], [179, 139, 124], [176, 138, 125], [179, 136, 127], [179, 139, 126], [179, 139, 124], [178, 138, 125], [179, 139, 124], [179, 139, 124], [179, 139, 124], [179, 139, 126], [179, 137, 123], [179, 139, 126], [179, 139, 126], [176, 138, 125], [179, 139, 124], [178, 138, 125], [179, 139, 124], [178, 138, 125], [177, 139, 126], [176, 138, 125], [177, 139, 126], [179, 137, 123], [177, 139, 126], [179, 139, 126], [179, 139, 126], [179, 139, 126], [177, 139, 126], [177, 139, 126], [179, 138, 128], [179, 139, 126], [178, 138, 125], [179, 139, 124], [176, 139, 123], [176, 139, 123], [176, 138, 125], [177, 140, 124], [176, 138, 125], [177, 140, 124], [176, 138, 125], [177, 139, 126], [176, 138, 125], [176, 138, 125], [177, 139, 126], [177, 140, 124], [179, 139, 126], [177, 139, 126], [177, 139, 126], [177, 139, 126], [179, 139, 124], [179, 139, 124], [177, 139, 126], [177, 139, 126], [179, 139, 124], [177, 140, 124], [177, 139, 126], [177, 139, 126], [178, 138, 123], [177, 139, 126], [179, 139, 124], [178, 140, 127], [178, 141, 125], [178, 140, 127], [180, 138, 126], [178, 141, 125], [179, 142, 126], [178, 140, 127], [178, 141, 125], [178, 141, 125], [178, 141, 125], [180, 140, 125], [177, 141, 127], [177, 139, 126], [179, 139, 124], [180, 140, 123], [177, 139, 126], [178, 141, 125], [177, 139, 126], [179, 139, 126], [178, 140, 127], [179, 139, 126], [177, 140, 124], [178, 141, 125], [178, 140, 127], [178, 141, 125], [178, 141, 125], [178, 141, 125], [178, 140, 127], [177, 141, 125], [178, 141, 125], [178, 140, 127], [178, 141, 125], [178, 140, 127], [177, 139, 126], [178, 141, 125], [181, 141, 126], [178, 140, 127], [177, 139, 126], [181, 141, 126], [180, 140, 123], [180, 140, 127], [180, 140, 125], [178, 140, 127], [178, 140, 127], [178, 141, 125], [178, 140, 127], [178, 141, 125], [179, 139, 124], [178, 141, 125], [177, 140, 124], [177, 139, 126], [177, 140, 124], [177, 139, 126], [177, 139, 126], [178, 140, 127], [176, 139, 123], [177, 139, 126], [176, 140, 126], [177, 140, 124], [177, 139, 126], [179, 139, 124], [177, 139, 126], [177, 140, 124], [178, 141, 125], [177, 140, 124], [177, 139, 126], [177, 139, 126], [178, 138, 125], [178, 140, 127], [177, 140, 124], [176, 138, 125], [177, 140, 124], [179, 139, 126], [177, 139, 126], [177, 139, 126], [179, 139, 126], [178, 141, 125], [176, 139, 123], [177, 139, 126], [177, 139, 126], [179, 139, 124], [178, 138, 123], [177, 139, 126], [176, 138, 125], [179, 139, 124], [178, 138, 123], [177, 140, 124], [176, 138, 125], [176, 139, 123], [176, 139, 123], [178, 138, 123], [176, 138, 125], [177, 140, 124], [179, 139, 124], [176, 138, 125], [176, 138, 125], [176, 139, 123], [176, 138, 125], [178, 138, 123], [175, 137, 126], [176, 138, 125], [178, 138, 121], [177, 137, 122], [176, 139, 123], [176, 138, 125], [175, 138, 122], [179, 139, 124], [177, 140, 124], [179, 139, 124], [177, 140, 124], [176, 138, 125], [175, 137, 124], [177, 140, 124], [176, 138, 125], [177, 140, 124], [175, 137, 126], [175, 138, 122], [176, 139, 123], [176, 139, 123], [176, 139, 123], [176, 138, 125], [176, 138, 125], [176, 139, 123], [176, 138, 125], [176, 139, 123], [175, 138, 122], [176, 138, 125], [176, 139, 123], [178, 138, 123], [176, 138, 125], [176, 138, 125], [176, 138, 125], [176, 138, 125], [176, 139, 123], [178, 138, 125], [177, 137, 122], [178, 138, 125], [176, 138, 125], [178, 138, 125], [175, 137, 124], [178, 138, 123], [176, 138, 125], [176, 138, 125], [175, 137, 124], [177, 140, 124], [176, 139, 123], [176, 138, 125], [176, 138, 125], [176, 139, 123], [177, 139, 126], [176, 138, 125], [179, 139, 124], [179, 139, 124], [179, 139, 126], [176, 139, 123], [177, 140, 124], [176, 138, 125], [178, 138, 123], [176, 138, 125], [176, 139, 123], [176, 139, 123], [177, 139, 126], [176, 138, 125], [179, 139, 124], [179, 139, 126], [176, 138, 125], [178, 138, 125], [177, 139, 126], [176, 138, 125], [176, 138, 125], [177, 140, 124], [179, 139, 124], [179, 139, 124], [177, 140, 124], [176, 138, 127], [177, 139, 126], [178, 138, 123], [178, 138, 123], [176, 138, 125], [178, 138, 123], [178, 138, 125], [176, 138, 125], [178, 138, 123], [176, 138, 125], [178, 138, 123], [176, 139, 123], [177, 139, 126], [176, 139, 123], [177, 137, 124], [179, 139, 124], [177, 140, 124], [176, 138, 125], [177, 139, 126], [179, 139, 124], [176, 139, 123], [177, 139, 126], [177, 139, 126], [179, 139, 126], [177, 139, 128], [178, 141, 125], [177, 139, 126], [179, 139, 124], [176, 138, 125], [179, 139, 124], [177, 140, 124], [177, 139, 126], [176, 139, 123], [176, 138, 125], [176, 139, 123], [177, 139, 126], [178, 138, 125], [176, 139, 123], [177, 139, 126], [176, 138, 125], [176, 139, 123], [176, 138, 125], [176, 140, 124], [179, 139, 124], [176, 138, 125], [178, 138, 123], [177, 140, 124], [178, 138, 125], [176, 139, 123], [176, 138, 125], [178, 138, 125], [175, 137, 124], [177, 137, 124], [176, 138, 125], [178, 138, 123], [178, 138, 125], [176, 139, 123], [176, 138, 125], [177, 137, 122], [176, 139, 123], [176, 138, 125], [178, 138, 125], [178, 138, 125], [179, 139, 124], [176, 139, 123], [176, 139, 121], [178, 138, 125], [175, 137, 124], [175, 137, 124], [177, 137, 122], [177, 137, 124], [179, 137, 123], [176, 139, 123], [178, 138, 125], [177, 137, 124], [175, 137, 126], [177, 137, 122], [175, 137, 124], [176, 138, 125], [178, 138, 123], [176, 138, 125], [177, 137, 122], [178, 138, 123], [178, 138, 123], [178, 138, 123], [175, 137, 124], [177, 137, 122], [175, 137, 124], [178, 138, 123], [178, 138, 123], [176, 138, 125], [177, 140, 124], [177, 137, 122], [176, 138, 125], [177, 137, 122], [176, 138, 125], [176, 139, 123], [176, 139, 123], [176, 138, 125], [178, 138, 123], [178, 138, 125], [176, 138, 125], [176, 139, 123], [176, 139, 123], [178, 138, 123], [176, 139, 123], [178, 138, 121], [175, 138, 122], [176, 139, 123], [176, 138, 125], [176, 138, 125], [178, 138, 123], [179, 138, 121], [176, 138, 125], [177, 137, 122], [178, 138, 123], [177, 137, 122], [176, 139, 123], [176, 138, 125], [177, 137, 122], [176, 139, 123], [176, 138, 125], [179, 139, 124], [177, 140, 124], [178, 138, 123], [178, 138, 123], [176, 138, 125], [177, 137, 124], [176, 138, 125], [176, 138, 125], [176, 139, 123], [176, 139, 123], [176, 138, 125], [177, 139, 126], [176, 138, 125], [176, 139, 123], [176, 138, 125], [175, 139, 125], [176, 138, 125], [176, 140, 124], [177, 140, 124], [176, 140, 124], [178, 138, 125], [176, 139, 123], [178, 138, 123], [174, 138, 124], [175, 137, 124], [176, 138, 125], [177, 137, 122], [178, 138, 123], [178, 138, 123], [178, 138, 125], [177, 137, 122], [178, 138, 123], [176, 138, 125], [178, 138, 125], [178, 138, 123], [176, 139, 123], [176, 138, 125], [178, 138, 123], [177, 139, 126], [176, 138, 125], [176, 139, 123], [178, 138, 123], [175, 137, 124], [176, 139, 123], [178, 136, 122], [176, 139, 123], [178, 138, 123], [179, 138, 121], [177, 137, 124], [178, 138, 123], [178, 138, 123], [178, 138, 123], [177, 137, 124], [176, 138, 125], [176, 138, 125], [178, 138, 123], [177, 137, 124], [178, 138, 123], [178, 138, 123], [177, 137, 122], [176, 139, 123], [175, 137, 124], [177, 137, 122], [177, 137, 122], [177, 137, 122], [178, 138, 123], [178, 138, 123], [176, 138, 125], [177, 137, 122], [175, 138, 122], [177, 137, 122], [177, 137, 122], [178, 138, 121], [178, 137, 120], [174, 138, 124], [175, 138, 122], [178, 138, 125], [176, 139, 123], [178, 138, 125], [177, 140, 124], [177, 137, 122], [177, 137, 122], [175, 138, 122], [177, 137, 122], [175, 138, 122], [176, 138, 125], [175, 137, 124], [176, 138, 125], [175, 137, 124], [176, 138, 125], [176, 138, 125], [178, 138, 123], [176, 138, 125], [176, 139, 123], [178, 138, 123], [177, 139, 126], [175, 137, 124], [176, 139, 123], [178, 138, 123], [179, 137, 123], [177, 140, 124], [178, 138, 123], [178, 138, 123], [178, 138, 125], [175, 138, 122], [178, 138, 123], [176, 138, 125], [175, 138, 122], [175, 138, 122], [176, 139, 123], [176, 138, 125], [178, 138, 123], [178, 138, 123], [178, 138, 121], [176, 139, 123], [178, 138, 125], [179, 139, 124], [176, 138, 125], [178, 138, 125], [176, 138, 125], [178, 138, 123], [176, 139, 123], [178, 138, 123], [179, 137, 125], [177, 137, 122], [176, 139, 123], [177, 137, 122], [175, 138, 122], [178, 138, 123], [177, 140, 124], [176, 138, 125], [178, 138, 123], [176, 138, 125], [175, 139, 125], [176, 138, 125], [178, 138, 123], [177, 140, 124], [179, 139, 124], [176, 139, 123], [178, 138, 123], [178, 138, 123], [178, 138, 125], [176, 139, 123], [177, 137, 124], [177, 137, 122], [178, 138, 125], [178, 138, 123], [178, 138, 123], [177, 137, 122], [176, 138, 125], [176, 139, 123], [176, 138, 125], [176, 138, 125], [178, 138, 123], [177, 140, 122], [178, 138, 123], [178, 138, 123], [178, 138, 123], [177, 139, 126], [176, 138, 125], [179, 137, 123], [176, 138, 125], [176, 139, 123], [178, 138, 123], [176, 138, 125], [177, 137, 122], [175, 137, 124], [176, 138, 125], [177, 137, 122], [176, 138, 125], [175, 137, 124], [175, 137, 124], [177, 139, 126], [176, 138, 125], [175, 137, 124], [176, 138, 125], [176, 139, 123], [178, 138, 123], [175, 137, 124], [176, 139, 123], [176, 139, 123], [176, 139, 123], [175, 137, 124], [176, 138, 125], [178, 136, 122], [175, 137, 124], [176, 139, 123], [176, 138, 125], [179, 137, 123], [176, 139, 123], [175, 137, 124], [176, 139, 123], [177, 137, 122], [175, 137, 124], [176, 139, 123], [176, 139, 123], [175, 138, 122], [175, 138, 122], [177, 137, 122], [177, 137, 122], [176, 138, 125], [175, 137, 124], [178, 138, 125], [178, 136, 122], [175, 138, 120], [178, 136, 122], [177, 137, 122], [177, 137, 122], [175, 137, 124], [177, 137, 122], [175, 138, 122], [177, 137, 120], [175, 137, 124], [175, 138, 122], [175, 137, 124], [175, 138, 122], [175, 137, 124], [175, 137, 124], [177, 137, 122], [178, 136, 122], [178, 136, 122], [178, 136, 124], [177, 137, 122], [178, 138, 125], [177, 137, 122], [177, 137, 122], [177, 137, 120], [177, 137, 122], [175, 138, 122], [178, 136, 122], [175, 137, 124], [177, 137, 124], [176, 138, 125], [178, 138, 123], [178, 138, 123], [177, 137, 124], [177, 137, 122], [175, 137, 124], [175, 137, 124], [175, 137, 124], [178, 136, 122], [178, 138, 123], [178, 136, 122], [177, 137, 122], [178, 136, 122], [177, 137, 122], [177, 137, 122], [177, 137, 122], [175, 137, 124], [178, 136, 124], [178, 138, 123], [177, 137, 122], [177, 137, 124], [177, 137, 124], [178, 136, 122], [175, 137, 124], [177, 137, 122], [177, 137, 122], [178, 136, 122], [175, 137, 124], [177, 137, 124], [175, 138, 122], [178, 136, 122], [177, 137, 122], [177, 137, 124], [175, 137, 124], [177, 137, 124], [175, 137, 124], [175, 138, 122], [176, 139, 123], [177, 137, 122], [177, 137, 124], [178, 136, 122], [175, 137, 124], [175, 138, 122], [175, 137, 124], [178, 136, 122], [177, 137, 122], [177, 137, 124], [175, 137, 124], [175, 137, 124], [175, 137, 124], [178, 136, 122], [177, 137, 124], [177, 137, 122], [175, 137, 124], [177, 137, 124], [175, 137, 124], [177, 137, 122], [175, 137, 124], [178, 136, 122], [178, 136, 122], [177, 137, 120], [178, 136, 124], [177, 137, 122], [177, 137, 122], [177, 137, 122], [177, 137, 122], [177, 137, 122], [177, 137, 124], [177, 137, 124], [177, 137, 122], [176, 138, 125], [177, 137, 122], [176, 138, 125], [177, 137, 122], [176, 139, 123], [178, 138, 125], [178, 138, 123], [177, 137, 122], [175, 137, 124], [175, 137, 124], [175, 137, 124], [178, 136, 124], [178, 138, 123], [177, 137, 120], [178, 138, 121], [178, 136, 122], [177, 137, 124], [177, 137, 122], [175, 138, 122], [178, 136, 122], [177, 137, 122], [175, 137, 124], [175, 138, 122], [177, 137, 122], [175, 137, 124], [176, 138, 125], [179, 137, 123], [178, 136, 122], [178, 138, 123], [175, 138, 122], [177, 137, 122], [179, 137, 123], [177, 137, 122], [177, 137, 122], [178, 136, 122], [178, 136, 122], [178, 136, 122], [177, 137, 122], [178, 138, 123], [175, 137, 124], [178, 137, 120], [177, 137, 122], [175, 138, 122], [175, 138, 122], [178, 138, 123], [176, 139, 123], [176, 139, 121], [175, 138, 122], [177, 137, 124], [175, 138, 120], [177, 137, 122], [177, 137, 122], [175, 138, 122], [176, 139, 123], [175, 138, 122], [177, 137, 122], [175, 138, 122], [175, 137, 124], [175, 137, 124], [176, 138, 125], [178, 138, 123], [175, 138, 122], [176, 139, 123], [178, 138, 123], [178, 138, 121], [177, 137, 122], [178, 138, 123], [177, 137, 120], [175, 137, 124], [175, 137, 124], [177, 137, 122], [177, 137, 122], [176, 138, 125], [175, 137, 124], [175, 137, 124], [177, 137, 122], [177, 137, 122], [177, 137, 122], [176, 138, 125], [177, 137, 122], [177, 137, 122], [175, 137, 124], [175, 137, 124], [175, 137, 124], [175, 137, 124], [177, 137, 124], [176, 138, 125], [177, 137, 122], [177, 137, 124], [175, 138, 122], [177, 137, 122], [178, 136, 122], [177, 137, 122], [177, 137, 122], [178, 136, 122], [177, 137, 124], [177, 137, 122], [175, 138, 122], [175, 137, 124], [175, 137, 124], [177, 137, 124], [178, 136, 122], [175, 137, 124], [177, 137, 122], [177, 137, 124], [177, 137, 122], [177, 137, 124], [178, 136, 124], [177, 137, 124], [177, 137, 122], [175, 137, 124], [178, 136, 124], [177, 137, 124], [177, 137, 124], [177, 137, 124], [177, 137, 122], [177, 137, 124], [177, 137, 124], [178, 136, 122], [177, 137, 122], [175, 138, 122], [175, 138, 122], [175, 137, 124], [177, 137, 124], [177, 137, 122], [177, 137, 124], [175, 137, 124], [177, 137, 124], [175, 138, 122], [175, 137, 124], [177, 137, 122], [175, 137, 124], [177, 136, 126], [177, 137, 122], [177, 137, 122], [178, 136, 124], [178, 136, 122], [177, 137, 122], [175, 138, 122], [177, 137, 124], [178, 136, 122], [177, 137, 122], [177, 137, 122], [175, 137, 124], [175, 138, 122], [175, 137, 124], [178, 136, 124], [177, 137, 124], [177, 137, 124], [177, 137, 122], [177, 137, 122], [177, 137, 122], [175, 138, 122], [177, 137, 122], [177, 137, 122], [178, 136, 122], [177, 137, 122], [177, 137, 122], [177, 137, 124], [177, 137, 122], [177, 137, 122], [177, 137, 122], [177, 137, 122], [177, 137, 122], [175, 138, 122], [175, 137, 124], [175, 138, 122], [175, 137, 124], [177, 137, 122], [176, 139, 123], [175, 137, 124], [177, 137, 122], [175, 137, 124], [177, 137, 122], [175, 137, 124], [177, 137, 122], [177, 137, 122], [177, 137, 122], [177, 137, 122], [178, 136, 124], [177, 137, 124], [177, 137, 124], [175, 137, 124], [175, 138, 122], [177, 137, 122], [177, 137, 124], [177, 137, 122], [177, 137, 122], [175, 138, 122], [177, 137, 122], [175, 138, 122], [177, 137, 122], [178, 136, 122], [177, 137, 122], [175, 137, 124], [175, 138, 122], [177, 137, 122], [175, 137, 124], [175, 138, 122], [177, 137, 122], [177, 137, 122], [175, 137, 124], [178, 136, 122], [175, 137, 124], [177, 137, 122], [175, 137, 124], [175, 137, 124], [175, 137, 124], [175, 137, 124], [175, 137, 124], [175, 138, 122], [175, 137, 124], [175, 137, 124], [175, 137, 124], [175, 138, 122]]
[[221, 189, 192], [224, 190, 193], [223, 189, 190], [224, 190, 193], [224, 190, 193], [223, 192, 192], [223, 191, 194], [222, 191, 191], [220, 190, 192], [222, 190, 193], [221, 191, 193], [222, 190, 193], [222, 190, 193], [222, 190, 193], [222, 190, 193], [223, 189, 190], [223, 191, 194], [223, 192, 192], [223, 189, 190], [224, 190, 191], [224, 190, 191], [224, 190, 191], [222, 190, 195], [223, 191, 194], [223, 189, 192], [224, 190, 193], [223, 189, 192], [223, 189, 192], [223, 189, 192], [223, 189, 192], [223, 189, 190], [222, 191, 191], [224, 190, 189], [223, 189, 192], [221, 189, 192], [223, 189, 190], [222, 188, 191], [224, 190, 191], [223, 189, 192], [221, 189, 192], [221, 190, 190], [222, 188, 189], [222, 188, 189], [222, 188, 189], [222, 188, 189], [223, 187, 189], [223, 189, 190], [222, 188, 189], [223, 189, 192], [222, 188, 189], [223, 187, 191], [223, 189, 192], [223, 189, 192], [220, 188, 191], [221, 189, 192], [220, 188, 191], [222, 188, 191], [222, 188, 191], [222, 188, 191], [222, 188, 191], [222, 188, 191], [223, 189, 192], [223, 189, 190], [222, 188, 189], [224, 189, 188], [224, 188, 190], [223, 189, 190], [222, 188, 189], [223, 189, 190], [223, 189, 190], [223, 189, 190], [223, 189, 190], [223, 189, 190], [223, 189, 190], [223, 189, 190], [224, 188, 192], [224, 189, 188], [222, 188, 189], [222, 188, 189], [222, 188, 189], [223, 189, 190], [223, 189, 190], [223, 189, 190], [223, 189, 190], [224, 190, 191], [223, 189, 190], [222, 191, 191], [223, 189, 188], [223, 189, 190], [223, 187, 189], [223, 189, 190], [222, 190, 193], [223, 189, 192], [223, 189, 190], [222, 188, 191], [222, 188, 187], [221, 190, 190], [223, 189, 190], [223, 189, 188], [222, 188, 189], [222, 188, 189], [220, 190, 192], [223, 189, 192], [223, 189, 190], [223, 189, 190], [221, 189, 192], [222, 188, 189], [222, 188, 189], [222, 188, 189], [222, 188, 189], [221, 190, 190], [220, 190, 192], [222, 188, 191], [223, 189, 190], [222, 188, 189], [224, 190, 193], [221, 190, 190], [221, 189, 192], [220, 190, 192], [223, 189, 192], [223, 189, 192], [222, 188, 189], [223, 189, 192], [222, 188, 189], [222, 188, 191], [223, 189, 190], [224, 190, 193], [222, 188, 189], [222, 188, 189], [224, 190, 191], [223, 189, 190], [222, 190, 193], [224, 190, 191], [223, 189, 188], [221, 189, 192], [221, 191, 193], [222, 190, 193], [221, 190, 190], [221, 189, 192], [223, 189, 192], [223, 189, 190], [222, 188, 191], [222, 188, 189], [223, 189, 190], [222, 188, 191], [223, 189, 192], [223, 189, 192], [221, 189, 192], [222, 188, 191], [223, 189, 192], [223, 189, 190], [220, 189, 189], [222, 188, 189], [220, 189, 189], [222, 188, 189], [220, 189, 189], [223, 189, 190], [223, 189, 192], [221, 189, 192], [221, 191, 193], [222, 188, 191], [222, 188, 189], [221, 189, 192], [220, 188, 191], [220, 190, 192], [221, 190, 190], [221, 191, 193], [221, 190, 190], [221, 190, 190], [222, 188, 191], [223, 189, 192], [222, 188, 191], [221, 191, 191], [222, 188, 191], [220, 190, 190], [221, 189, 192], [220, 190, 190], [221, 189, 192], [220, 188, 191], [221, 190, 190], [221, 189, 192], [221, 190, 190], [222, 188, 191], [220, 190, 192], [220, 190, 192], [220, 190, 190], [222, 188, 189], [221, 190, 190], [223, 189, 190], [222, 188, 189], [221, 190, 190], [222, 188, 191], [220, 188, 191], [222, 188, 189], [220, 189, 189], [221, 190, 190], [221, 189, 192], [222, 188, 191], [221, 190, 190], [220, 188, 191], [221, 189, 192], [222, 188, 191], [220, 190, 190], [220, 188, 191], [222, 188, 189], [221, 190, 190], [221, 189, 192], [223, 189, 192], [221, 190, 190], [224, 190, 193], [222, 191, 191], [221, 189, 192], [221, 191, 193], [220, 190, 192], [222, 188, 191], [223, 189, 192], [223, 189, 192], [223, 189, 190], [221, 189, 192], [221, 190, 190], [221, 190, 190], [221, 190, 190], [222, 191, 191], [223, 189, 192], [221, 190, 190], [223, 189, 190], [223, 189, 190], [223, 189, 190], [222, 188, 191], [220, 189, 189], [220, 189, 189], [223, 189, 192], [220, 188, 191], [222, 188, 189], [221, 189, 192], [221, 189, 192], [222, 188, 189], [221, 190, 190], [221, 190, 190], [223, 189, 190], [220, 190, 192], [223, 189, 190], [223, 189, 192], [224, 190, 193], [223, 189, 190], [221, 189, 192], [220, 188, 191], [222, 188, 189], [222, 188, 189], [222, 188, 191], [222, 188, 191], [221, 189, 192], [222, 188, 191], [221, 190, 190], [223, 189, 190], [221, 190, 190], [221, 189, 192], [223, 189, 190], [223, 189, 190], [222, 188, 189], [222, 188, 191], [222, 188, 191], [222, 188, 191], [222, 188, 189], [222, 188, 191], [219, 187, 190], [221, 187, 190], [222, 188, 189], [223, 189, 190], [223, 188, 194], [221, 190, 190], [222, 188, 191], [221, 189, 192], [223, 189, 190], [222, 188, 189], [221, 190, 190], [223, 189, 192], [222, 188, 191], [222, 188, 191], [221, 187, 188], [221, 187, 188], [221, 187, 190], [222, 188, 189], [222, 188, 191], [223, 187, 189], [222, 188, 189], [223, 189, 190], [222, 188, 189], [222, 188, 189], [222, 188, 191], [222, 188, 189], [221, 187, 188], [222, 188, 189], [222, 188, 189], [222, 188, 191], [222, 188, 189], [222, 188, 191], [223, 187, 191], [221, 187, 190], [222, 188, 191], [221, 187, 188], [221, 187, 188], [222, 188, 189], [222, 188, 189], [222, 188, 191], [221, 187, 190], [222, 188, 189], [222, 188, 191], [222, 188, 191], [222, 188, 189], [223, 189, 190], [222, 188, 189], [223, 189, 190], [222, 188, 189], [222, 188, 191], [222, 188, 189], [222, 188, 191], [222, 188, 189], [222, 188, 189], [221, 190, 190], [222, 188, 191], [221, 189, 192], [222, 188, 191], [220, 190, 190], [222, 188, 191], [222, 188, 191], [223, 189, 192], [222, 188, 189], [222, 188, 191], [222, 188, 191], [222, 188, 189], [222, 188, 189], [221, 187, 186], [222, 188, 191], [221, 190, 190], [221, 189, 192], [221, 187, 188], [222, 188, 191], [221, 187, 188], [221, 187, 190], [221, 190, 190], [220, 188, 191], [222, 188, 191], [221, 189, 192], [220, 189, 189], [220, 189, 189], [220, 188, 191], [222, 188, 191], [222, 188, 189], [222, 188, 189], [222, 188, 189], [223, 189, 190], [222, 188, 191], [220, 189, 189], [222, 188, 191], [223, 189, 192], [221, 189, 194], [223, 189, 190], [222, 188, 189], [223, 189, 192], [221, 190, 190], [223, 189, 192], [222, 188, 189], [223, 189, 190], [221, 190, 190], [221, 190, 190], [223, 189, 190], [223, 189, 190], [221, 190, 190], [223, 189, 190], [223, 189, 190], [222, 188, 191], [222, 188, 191], [224, 190, 191], [222, 191, 191], [223, 189, 190], [223, 189, 190], [224, 190, 193], [223, 189, 190], [224, 190, 191], [224, 190, 191], [222, 190, 193], [224, 190, 193], [224, 190, 193], [222, 192, 192], [224, 190, 193], [223, 192, 192], [224, 190, 191], [222, 191, 191], [223, 189, 190], [222, 191, 191], [223, 189, 190], [224, 190, 191], [221, 189, 192], [221, 191, 193], [221, 190, 190], [222, 191, 191], [221, 190, 190], [222, 191, 191], [223, 189, 190], [223, 189, 190], [223, 189, 190], [222, 191, 191], [222, 190, 193], [222, 191, 191], [220, 190, 192], [220, 190, 192], [222, 188, 189], [222, 188, 191], [223, 189, 190], [223, 189, 192], [221, 190, 190], [220, 189, 189], [223, 189, 192], [223, 189, 190], [223, 189, 190], [221, 189, 192], [220, 188, 191], [219, 189, 191], [222, 188, 191], [224, 190, 193], [224, 190, 191], [222, 191, 191], [223, 189, 190], [224, 190, 193], [221, 187, 190], [221, 187, 190], [220, 188, 191], [221, 190, 190], [220, 189, 189], [220, 188, 191], [222, 188, 189], [222, 188, 191], [221, 187, 190], [223, 189, 192], [222, 192, 192], [221, 189, 192], [220, 190, 192], [222, 188, 191], [221, 187, 190], [221, 187, 190], [219, 187, 190], [222, 188, 191], [222, 188, 191], [223, 189, 190], [220, 190, 192], [223, 189, 192], [222, 188, 191], [222, 188, 191], [222, 188, 189], [220, 189, 189], [222, 188, 189], [222, 188, 191], [222, 188, 191], [222, 188, 189], [222, 188, 189], [221, 187, 190], [223, 187, 189], [221, 187, 190], [220, 189, 189], [222, 188, 189], [222, 188, 191], [222, 188, 189], [221, 187, 188], [222, 188, 189], [221, 187, 190], [222, 188, 189], [221, 187, 186], [222, 188, 189], [222, 188, 189], [221, 187, 188], [222, 186, 188], [222, 188, 189], [222, 188, 191], [222, 188, 189], [222, 188, 191], [222, 188, 191], [222, 188, 191], [222, 188, 191], [222, 188, 189], [221, 187, 188], [222, 188, 189], [222, 188, 189], [222, 188, 189], [222, 188, 189], [221, 187, 188], [222, 188, 191], [221, 189, 192], [223, 189, 192], [222, 188, 191], [223, 189, 192], [221, 187, 188], [221, 187, 190], [222, 188, 191], [221, 187, 188], [221, 187, 188], [221, 187, 186], [222, 188, 189], [222, 188, 189], [222, 188, 189], [223, 189, 190], [222, 188, 191], [222, 188, 191], [222, 188, 189], [220, 189, 189], [222, 188, 189], [221, 187, 186], [222, 188, 189], [222, 188, 189], [222, 188, 189], [223, 187, 189], [222, 188, 189], [224, 188, 190], [223, 189, 190], [222, 188, 189], [223, 189, 190], [223, 189, 192], [221, 189, 192], [223, 189, 192], [223, 189, 192], [222, 188, 189], [221, 186, 192], [223, 187, 189], [223, 189, 192], [222, 188, 189], [222, 188, 191], [223, 189, 190], [222, 188, 189], [223, 189, 190], [222, 188, 189], [222, 188, 189], [223, 189, 192], [223, 189, 190], [222, 188, 191], [222, 188, 191], [222, 188, 189], [222, 188, 189], [222, 188, 191], [222, 188, 189], [223, 189, 192], [222, 188, 189], [222, 188, 189], [222, 188, 191], [222, 188, 191], [222, 188, 191], [222, 188, 191], [223, 189, 190], [221, 190, 190], [222, 188, 189], [222, 188, 189], [222, 188, 191], [222, 188, 189], [222, 188, 191], [222, 188, 189], [222, 188, 189], [223, 189, 192], [222, 188, 189], [222, 188, 189], [223, 189, 188], [223, 189, 190], [222, 188, 191], [223, 189, 192], [223, 189, 192], [222, 188, 191], [221, 190, 190], [222, 188, 191], [220, 190, 192], [221, 189, 192], [220, 188, 191], [220, 189, 189], [222, 188, 191], [222, 188, 189], [222, 186, 188], [221, 187, 186], [220, 189, 187], [222, 188, 189], [220, 189, 189], [223, 189, 190], [222, 188, 189], [223, 189, 190], [223, 189, 190], [223, 189, 190], [223, 189, 192], [223, 189, 190], [223, 189, 192], [224, 190, 191], [224, 190, 191], [221, 191, 193], [221, 190, 190], [223, 189, 192], [223, 189, 190], [221, 189, 192], [221, 190, 190], [223, 189, 190], [223, 189, 190], [222, 188, 189], [222, 188, 189], [221, 190, 190], [223, 189, 190], [223, 189, 192], [222, 188, 189], [223, 189, 190], [223, 189, 190], [220, 188, 191], [222, 192, 194], [224, 190, 193], [221, 191, 193], [224, 190, 193], [223, 189, 190], [223, 189, 192], [222, 190, 193], [224, 190, 191], [223, 189, 190], [220, 190, 190], [223, 189, 192], [223, 189, 190], [223, 189, 190], [223, 189, 192], [221, 190, 190], [222, 188, 189], [222, 188, 191], [224, 190, 191], [224, 190, 189], [223, 189, 190], [223, 192, 192], [222, 191, 191], [222, 190, 193], [224, 190, 193], [224, 190, 191], [224, 190, 191], [222, 188, 191], [222, 188, 191], [222, 188, 189], [223, 189, 192], [224, 190, 191], [222, 191, 191], [222, 191, 191], [222, 191, 191], [221, 191, 193], [222, 191, 191], [223, 189, 190], [222, 191, 191], [221, 189, 192], [223, 189, 190], [223, 189, 190], [223, 189, 190], [224, 190, 193], [223, 189, 190], [224, 190, 193], [223, 189, 190], [223, 189, 192], [223, 189, 190], [224, 190, 193], [223, 189, 190], [223, 189, 192], [223, 189, 192], [223, 189, 190], [223, 189, 192], [223, 189, 190], [220, 188, 191], [222, 188, 191], [222, 188, 189], [223, 189, 192], [222, 188, 189], [223, 189, 190], [223, 189, 190], [220, 188, 191], [221, 189, 192], [222, 188, 189], [222, 188, 189], [222, 188, 191], [222, 188, 189], [222, 188, 189], [222, 188, 189], [222, 188, 189], [223, 189, 190], [222, 188, 189], [222, 188, 189], [222, 188, 189], [221, 187, 188], [223, 187, 189], [222, 188, 191], [223, 189, 190], [222, 188, 189], [222, 188, 189], [222, 188, 191], [219, 189, 191], [223, 189, 192], [221, 189, 192], [221, 189, 194], [220, 190, 192], [221, 189, 192], [222, 188, 191], [223, 189, 192], [223, 189, 192], [222, 188, 191], [223, 189, 192], [223, 189, 192], [221, 191, 193], [221, 187, 188], [221, 187, 188], [221, 187, 188], [222, 188, 189], [224, 190, 193], [223, 189, 192], [222, 191, 191], [223, 189, 192], [222, 188, 189], [222, 191, 191], [223, 189, 190], [221, 190, 190], [223, 189, 190], [223, 189, 190], [223, 189, 192], [223, 189, 190], [223, 189, 190], [222, 188, 189], [221, 189, 192], [223, 189, 192], [223, 189, 192], [223, 189, 190], [222, 190, 193], [223, 189, 192], [224, 190, 193], [224, 190, 191], [220, 189, 189], [222, 191, 191], [223, 189, 190], [223, 189, 190], [223, 189, 192], [222, 188, 191], [223, 189, 190], [222, 188, 191], [222, 188, 191], [222, 188, 191], [223, 189, 192], [223, 189, 192], [223, 189, 192], [223, 189, 192], [223, 189, 190], [222, 188, 191], [223, 189, 192], [224, 190, 193], [223, 189, 192], [224, 190, 191], [223, 189, 192], [223, 189, 192], [223, 189, 192], [223, 189, 192], [223, 189, 192], [222, 188, 191], [223, 189, 190], [222, 188, 189], [222, 188, 189], [222, 188, 191], [224, 190, 191], [224, 190, 191], [223, 189, 190], [223, 189, 192], [222, 188, 191], [224, 190, 191], [221, 191, 193], [223, 189, 190], [223, 189, 192], [223, 189, 192], [223, 189, 190], [223, 189, 188], [223, 189, 192], [222, 188, 189], [223, 189, 192], [222, 188, 189], [223, 189, 190], [222, 188, 189], [221, 190, 190], [221, 191, 193], [221, 190, 190], [223, 189, 190], [221, 190, 190], [221, 190, 190], [222, 188, 191], [222, 188, 189], [223, 189, 188], [222, 188, 191], [219, 189, 193], [220, 188, 191], [222, 188, 191], [221, 189, 192], [222, 188, 191], [222, 188, 189], [222, 188, 189], [222, 188, 189], [222, 188, 189], [222, 188, 189], [222, 188, 189], [222, 188, 189], [222, 188, 189], [222, 188, 191], [222, 188, 189], [223, 189, 192], [222, 188, 189], [222, 188, 189], [222, 188, 191], [223, 189, 190], [222, 188, 189], [223, 187, 189], [221, 187, 190], [221, 187, 190], [224, 190, 191], [222, 188, 191], [221, 187, 188], [222, 186, 188], [222, 186, 190], [221, 187, 188], [221, 187, 188], [221, 187, 188], [219, 187, 190], [221, 187, 190], [221, 187, 190], [222, 188, 191], [220, 188, 191], [222, 188, 191], [222, 188, 191], [222, 188, 191], [222, 188, 191], [222, 188, 191], [222, 188, 191], [221, 187, 190], [222, 188, 191], [223, 187, 191], [222, 188, 189], [222, 188, 191], [222, 188, 189], [222, 188, 189], [222, 188, 191], [222, 188, 189], [222, 188, 189], [221, 189, 192], [222, 191, 191], [222, 191, 191], [222, 188, 191], [222, 188, 189], [223, 189, 190], [222, 188, 191], [222, 188, 191], [221, 187, 188], [222, 188, 189], [222, 188, 189], [223, 189, 192], [222, 188, 189], [223, 189, 190], [222, 188, 189], [222, 188, 189], [223, 189, 190], [222, 188, 189], [222, 188, 189], [222, 188, 189], [222, 188, 189], [222, 188, 189], [221, 187, 190], [222, 188, 189], [222, 188, 189], [224, 188, 190], [223, 189, 190], [224, 190, 191], [223, 189, 190], [223, 189, 190], [223, 189, 190], [223, 189, 190], [223, 189, 190], [221, 189, 192], [223, 189, 192], [221, 189, 192], [223, 189, 190], [223, 189, 190], [223, 189, 190], [220, 188, 191], [223, 189, 190], [222, 191, 191], [222, 191, 191], [223, 189, 188], [223, 189, 190], [223, 189, 190], [223, 189, 190], [223, 189, 190], [223, 189, 190], [223, 189, 190], [223, 189, 190], [224, 190, 193], [224, 190, 191], [222, 188, 189], [222, 188, 189], [222, 188, 189], [222, 188, 191], [223, 187, 191], [222, 188, 189], [221, 187, 188], [224, 190, 191], [224, 190, 191], [224, 190, 191], [224, 190, 191], [225, 191, 194], [223, 189, 190], [223, 189, 192], [221, 189, 192], [221, 190, 190], [223, 189, 192], [224, 190, 191], [222, 188, 189], [223, 189, 190], [222, 191, 191], [223, 189, 192], [223, 189, 190], [223, 189, 192], [221, 189, 192], [223, 189, 190], [221, 190, 190], [221, 189, 192], [222, 188, 189], [221, 189, 192], [222, 190, 193], [223, 189, 192], [223, 189, 190], [223, 189, 192], [223, 189, 190], [223, 189, 192], [224, 190, 191], [222, 191, 191], [223, 189, 190], [223, 189, 190], [221, 190, 190], [222, 188, 191], [223, 189, 192], [223, 189, 192], [221, 189, 192], [221, 190, 190], [223, 189, 190], [223, 189, 190], [223, 189, 192], [223, 189, 190], [222, 188, 189], [222, 188, 189], [221, 189, 192], [223, 189, 192], [222, 188, 189], [222, 188, 189], [222, 188, 189], [222, 188, 191], [222, 188, 189], [222, 188, 191], [222, 188, 189], [222, 188, 187], [221, 190, 190], [223, 189, 190], [221, 190, 190], [220, 189, 187], [221, 190, 190], [222, 188, 189], [223, 189, 190], [223, 189, 190], [220, 189, 189], [223, 189, 190], [223, 189, 192], [223, 189, 190], [223, 189, 190], [222, 188, 189], [222, 188, 189], [222, 188, 187], [221, 190, 190], [223, 189, 190], [223, 189, 192], [224, 190, 191], [223, 189, 190], [221, 189, 192], [221, 189, 192], [221, 189, 192], [221, 189, 192], [221, 190, 190], [223, 189, 190], [223, 189, 190], [222, 188, 191], [223, 189, 192], [223, 189, 190], [222, 188, 189], [222, 191, 191], [223, 189, 190], [222, 188, 191], [223, 189, 190], [220, 190, 194], [223, 189, 192], [221, 190, 190], [222, 191, 191], [221, 189, 192], [223, 189, 190], [221, 189, 192], [221, 190, 190], [221, 190, 190], [222, 188, 189], [224, 190, 191], [223, 189, 190], [222, 188, 191], [223, 189, 190], [222, 191, 191], [223, 189, 192], [222, 190, 193], [221, 189, 194], [221, 191, 191], [223, 189, 190], [223, 189, 190], [222, 191, 191], [223, 189, 190], [222, 191, 191], [223, 189, 188], [221, 191, 191], [220, 190, 192], [221, 190, 190], [222, 190, 193], [222, 188, 191], [222, 188, 191], [221, 190, 190], [221, 191, 191], [223, 189, 190], [222, 191, 191], [222, 191, 191], [221, 190, 190], [224, 190, 191], [224, 190, 193], [222, 191, 191], [224, 190, 189], [221, 190, 190], [222, 192, 192], [221, 191, 193], [221, 191, 193], [222, 190, 193], [221, 189, 192], [220, 190, 190], [221, 189, 192], [223, 189, 190], [223, 189, 190], [224, 190, 191], [221, 190, 190], [223, 189, 190], [222, 188, 191], [222, 188, 189], [220, 190, 190], [223, 189, 190], [221, 190, 190], [221, 191, 193], [222, 188, 189], [221, 191, 193], [222, 188, 191], [223, 189, 190], [223, 189, 192], [221, 190, 190], [222, 191, 191], [222, 191, 191], [222, 191, 191], [222, 191, 191], [224, 190, 191], [222, 188, 189], [223, 189, 190], [223, 189, 190], [223, 189, 190], [222, 188, 189], [223, 189, 192], [223, 189, 190], [223, 189, 190], [222, 188, 189], [222, 188, 191], [223, 189, 190], [221, 189, 192], [224, 190, 191], [222, 190, 193], [222, 190, 193], [221, 190, 190], [222, 188, 189], [223, 189, 190], [220, 189, 189], [222, 188, 191], [222, 188, 189], [223, 189, 190], [222, 188, 189], [222, 188, 189], [223, 189, 190], [223, 189, 190], [222, 188, 189], [223, 189, 190], [223, 189, 190], [223, 189, 192], [223, 189, 192], [223, 189, 190], [223, 189, 192], [222, 188, 191], [222, 188, 189], [223, 189, 190], [222, 188, 189], [222, 188, 191], [222, 188, 189], [222, 188, 189], [221, 187, 188], [221, 187, 188], [222, 188, 191], [222, 188, 191], [222, 188, 189], [223, 189, 192], [223, 189, 190], [220, 189, 189], [221, 190, 190], [222, 188, 189], [222, 188, 191], [222, 188, 191], [222, 188, 189], [222, 188, 189], [222, 188, 189], [223, 189, 190], [222, 188, 189], [223, 189, 190], [221, 189, 192], [220, 190, 194], [222, 188, 189], [222, 188, 187], [223, 189, 192], [220, 188, 191], [222, 190, 193], [221, 189, 192], [223, 189, 190], [221, 189, 192], [222, 191, 191], [221, 190, 190], [223, 189, 190], [221, 190, 190], [223, 189, 190], [222, 188, 189], [223, 189, 190], [222, 188, 191], [221, 190, 190], [222, 188, 191], [222, 188, 189], [222, 188, 191], [223, 189, 190], [221, 190, 190], [222, 188, 189], [222, 188, 189], [221, 190, 190], [221, 190, 190], [223, 189, 190], [223, 189, 190], [222, 188, 189], [222, 188, 189], [222, 188, 189], [222, 188, 189], [222, 188, 189], [222, 188, 189], [221, 189, 192], [222, 188, 191], [222, 188, 189], [222, 190, 193], [221, 187, 190], [223, 189, 190], [223, 189, 192], [222, 188, 191], [221, 190, 190], [223, 189, 192], [223, 189, 192], [222, 188, 189], [222, 188, 189], [221, 187, 188], [221, 187, 188], [222, 188, 189], [221, 187, 190], [222, 188, 189], [221, 190, 190], [222, 188, 189], [221, 190, 190], [223, 189, 190], [220, 188, 191], [223, 189, 192], [221, 190, 190], [221, 190, 190], [222, 188, 189], [220, 189, 189], [220, 189, 189], [222, 188, 189], [221, 187, 190], [223, 189, 192], [223, 189, 192], [222, 188, 191], [222, 188, 191], [223, 189, 190], [222, 188, 189], [222, 188, 189], [223, 189, 190], [222, 188, 189], [223, 188, 187], [222, 188, 189], [222, 188, 189], [219, 187, 190], [222, 188, 191], [219, 187, 190], [222, 188, 191], [222, 188, 189], [221, 187, 188], [222, 188, 191], [221, 187, 188], [221, 187, 188], [222, 188, 191], [222, 188, 191], [221, 187, 190], [221, 187, 188], [222, 188, 189], [222, 188, 189], [222, 188, 189], [221, 187, 188], [221, 187, 188], [222, 188, 191], [222, 188, 191], [220, 186, 187], [222, 188, 191], [221, 187, 190], [222, 188, 191], [220, 186, 189], [221, 187, 188], [222, 188, 189], [221, 187, 188], [222, 188, 189], [221, 187, 188], [221, 187, 188], [221, 187, 188], [222, 188, 191], [220, 188, 191], [222, 188, 189], [220, 186, 189], [222, 188, 191], [220, 189, 189], [221, 187, 190], [219, 188, 188], [221, 187, 188], [221, 187, 188], [221, 187, 188], [222, 188, 189], [222, 188, 191], [222, 188, 189], [221, 187, 188], [222, 188, 187], [223, 187, 189], [222, 188, 189], [222, 188, 189], [222, 188, 189], [222, 188, 189], [221, 190, 190], [222, 188, 191], [222, 188, 189], [222, 188, 191], [221, 187, 188], [221, 187, 190], [220, 189, 189], [221, 187, 188], [221, 187, 190], [221, 187, 188], [221, 187, 186], [221, 187, 190], [222, 187, 186], [222, 188, 189], [222, 188, 189], [222, 188, 191], [223, 189, 190], [221, 187, 188], [223, 189, 192], [221, 187, 188], [222, 188, 191], [222, 188, 189], [222, 188, 189], [223, 187, 189], [222, 188, 189], [221, 187, 188], [222, 188, 189], [223, 189, 190], [222, 188, 189], [221, 190, 190], [222, 188, 187], [223, 189, 190], [222, 188, 189], [222, 188, 189], [222, 188, 189], [222, 188, 189], [222, 188, 189], [223, 187, 189], [222, 188, 189], [222, 188, 189], [222, 188, 189], [222, 188, 189], [221, 187, 188], [221, 187, 188], [222, 191, 191], [223, 189, 190], [223, 189, 192], [223, 189, 190], [223, 189, 190], [223, 189, 190], [223, 189, 192], [222, 188, 191], [220, 188, 191], [223, 189, 190], [222, 188, 189], [222, 188, 189], [222, 188, 189], [223, 189, 190], [222, 188, 189], [222, 188, 189], [222, 188, 189], [222, 191, 191], [221, 189, 192], [222, 188, 189], [223, 189, 188], [223, 189, 190], [223, 189, 190], [222, 188, 189], [221, 190, 190], [221, 187, 188], [220, 189, 189], [221, 187, 188], [222, 188, 189], [221, 187, 188], [222, 188, 189], [223, 187, 189], [222, 186, 190], [222, 188, 191], [221, 187, 190], [221, 187, 188], [222, 188, 189], [222, 188, 189], [222, 188, 189], [221, 187, 188], [221, 187, 190], [221, 187, 190], [221, 187, 188], [221, 187, 188], [222, 188, 191], [222, 188, 189], [222, 188, 191], [222, 188, 191], [222, 188, 191], [221, 187, 188], [222, 188, 191], [222, 188, 191], [221, 187, 188], [222, 188, 189], [222, 188, 191], [222, 188, 191], [220, 189, 189], [221, 187, 190], [222, 188, 189], [221, 187, 188], [221, 187, 188], [221, 187, 190], [222, 188, 189], [221, 187, 190], [219, 187, 192], [222, 188, 191], [222, 188, 191], [222, 188, 189], [221, 187, 188], [221, 187, 188], [222, 188, 191], [221, 187, 188], [221, 187, 188], [221, 187, 188], [221, 187, 188], [221, 187, 188]]
[[120, 86, 85], [122, 86, 90], [97, 66, 66], [109, 80, 77], [115, 88, 89], [120, 93, 92], [114, 83, 81], [110, 79, 77], [112, 78, 79], [115, 82, 78], [118, 87, 85], [126, 92, 93], [124, 93, 91], [119, 92, 93], [106, 79, 78], [106, 79, 80], [108, 85, 85], [107, 82, 80], [111, 84, 83], [112, 89, 89], [121, 90, 88], [124, 91, 87], [122, 93, 90], [125, 94, 92], [125, 93, 82], [124, 91, 87], [123, 96, 95], [123, 92, 92], [126, 92, 93], [122, 97, 95], [120, 90, 90], [123, 92, 90], [124, 92, 95], [122, 88, 89], [116, 86, 86], [109, 79, 72], [116, 82, 81], [102, 72, 74], [113, 86, 85], [104, 72, 75], [117, 95, 92], [117, 92, 88], [119, 94, 92], [113, 88, 88], [110, 83, 82], [108, 83, 83], [113, 86, 85], [109, 83, 86], [112, 85, 84], [115, 90, 88], [115, 89, 85], [116, 85, 85], [113, 82, 80], [107, 77, 77], [102, 72, 72], [99, 70, 67], [102, 69, 63], [118, 91, 90], [100, 68, 71], [103, 77, 73], [96, 73, 75], [106, 75, 73], [103, 78, 78], [107, 82, 78], [108, 81, 80], [110, 80, 80], [107, 82, 80], [106, 81, 81], [112, 83, 80], [108, 77, 75], [117, 87, 87], [99, 65, 64], [97, 65, 68], [119, 88, 86], [118, 87, 85], [125, 86, 89], [120, 86, 87], [122, 89, 81], [113, 82, 80], [112, 83, 80], [95, 68, 67], [121, 86, 81], [97, 63, 64], [98, 68, 70], [114, 87, 88], [118, 87, 85], [99, 69, 69], [98, 72, 68], [115, 86, 83], [117, 95, 92], [117, 88, 83], [99, 69, 69], [96, 70, 66], [97, 66, 66], [121, 87, 88], [124, 93, 89], [103, 74, 69], [106, 76, 76], [113, 87, 83], [112, 89, 89], [113, 88, 86], [117, 92, 90], [113, 88, 86], [113, 88, 86], [106, 85, 84], [106, 83, 83], [104, 81, 83], [118, 93, 89], [125, 94, 92], [122, 95, 94], [116, 86, 86], [108, 76, 79], [102, 69, 65], [109, 75, 74], [110, 79, 75], [117, 92, 90], [117, 86, 82], [122, 88, 87], [117, 91, 87], [125, 92, 86], [120, 90, 90], [118, 89, 86], [114, 83, 81], [123, 98, 96], [111, 80, 80], [120, 92, 96], [120, 90, 92], [115, 89, 92], [102, 72, 72], [115, 93, 90], [102, 72, 72], [119, 97, 94], [95, 65, 65], [115, 93, 90], [117, 90, 89], [119, 97, 94], [114, 89, 89], [119, 90, 87], [115, 88, 87], [117, 87, 87], [113, 87, 83], [108, 77, 75], [113, 82, 82], [114, 89, 85], [115, 89, 85], [115, 90, 88], [109, 78, 76], [103, 72, 70], [105, 74, 72], [98, 73, 73], [102, 70, 73], [100, 73, 74], [106, 76, 78], [110, 78, 81], [110, 83, 84], [115, 89, 85], [110, 83, 82], [107, 77, 77], [104, 79, 77], [96, 69, 68], [101, 74, 73], [105, 79, 75], [111, 82, 79], [107, 73, 76], [109, 79, 79], [103, 78, 78], [97, 66, 62], [101, 71, 73], [110, 79, 79], [87, 60, 59], [118, 96, 93], [90, 64, 60], [98, 71, 70], [103, 76, 75], [99, 72, 71], [103, 72, 72], [103, 72, 68], [121, 95, 89], [133, 102, 100], [131, 96, 95], [120, 87, 81], [106, 77, 74], [109, 75, 74], [109, 74, 71], [123, 90, 86], [109, 74, 69], [105, 75, 75], [100, 71, 68], [102, 72, 72], [109, 86, 86], [107, 75, 78], [103, 76, 75], [114, 87, 86], [114, 89, 87], [113, 91, 88], [104, 74, 76], [118, 87, 87], [104, 75, 70], [105, 71, 72], [125, 96, 91], [112, 82, 82], [119, 85, 84], [122, 92, 92], [117, 86, 86], [121, 90, 90], [113, 86, 85], [125, 94, 90], [120, 90, 90], [107, 72, 69], [119, 89, 89], [127, 92, 89], [127, 92, 91], [119, 89, 89], [119, 88, 86], [103, 73, 73], [94, 69, 69], [91, 63, 67], [89, 62, 61], [96, 62, 61], [91, 66, 64], [117, 94, 94], [116, 91, 89], [90, 68, 65], [108, 79, 76], [112, 81, 77], [93, 68, 66], [86, 63, 63], [94, 67, 68], [90, 63, 62], [94, 67, 66], [95, 69, 65], [99, 65, 64], [118, 93, 91], [116, 89, 88], [112, 85, 84], [109, 78, 78], [104, 78, 74], [98, 71, 72], [96, 71, 71], [123, 82, 88], [97, 57, 58], [94, 63, 61], [99, 69, 71], [108, 77, 77], [110, 85, 83], [114, 89, 87], [81, 60, 57], [92, 63, 60], [86, 56, 56], [109, 84, 82], [104, 75, 72], [102, 72, 72], [108, 74, 73], [104, 74, 74], [108, 77, 77], [109, 75, 76], [99, 72, 71], [98, 66, 69], [97, 67, 69], [96, 70, 73], [107, 76, 76], [92, 61, 61], [93, 62, 60], [97, 66, 62], [106, 71, 68], [115, 76, 79], [118, 80, 78], [117, 87, 87], [119, 88, 88], [120, 90, 90], [118, 84, 85], [126, 96, 98], [102, 68, 69], [102, 69, 65], [97, 66, 64], [124, 94, 87], [96, 65, 65], [100, 69, 69], [126, 92, 93], [108, 77, 75], [110, 80, 80], [109, 82, 81], [112, 85, 84], [111, 85, 88], [109, 78, 78], [104, 73, 71], [99, 68, 68], [122, 92, 92], [114, 84, 84], [112, 81, 79], [104, 71, 67], [99, 68, 68], [94, 67, 66], [97, 68, 65], [112, 81, 79], [100, 71, 68], [97, 72, 72], [94, 67, 66], [101, 70, 66], [107, 76, 74], [116, 87, 84], [117, 86, 86], [117, 86, 84], [118, 84, 83], [110, 76, 75], [96, 65, 63], [116, 86, 86], [114, 85, 82], [109, 75, 74], [102, 71, 69], [97, 62, 61], [98, 64, 63], [108, 79, 76], [110, 76, 77], [104, 73, 71], [109, 78, 78], [108, 78, 80], [115, 81, 84], [106, 74, 77], [123, 88, 85], [107, 72, 71], [99, 58, 50], [104, 70, 73], [116, 82, 81], [103, 72, 70], [105, 70, 67], [107, 73, 72], [106, 73, 69], [110, 79, 79], [104, 74, 74], [110, 78, 81], [113, 87, 81], [108, 77, 75], [108, 77, 77], [107, 76, 74], [110, 75, 70], [96, 65, 61], [98, 63, 60], [94, 61, 57], [99, 62, 57], [95, 64, 60], [102, 73, 70], [99, 72, 71], [99, 73, 69], [93, 63, 65], [96, 65, 63], [104, 77, 76], [97, 67, 71], [99, 72, 71], [103, 72, 70], [111, 77, 76], [103, 76, 75], [105, 79, 73], [103, 68, 65], [99, 74, 74], [107, 77, 77], [107, 74, 70], [106, 76, 76], [100, 77, 77], [105, 75, 75], [103, 72, 70], [111, 82, 79], [106, 77, 74], [107, 81, 77], [107, 78, 75], [112, 78, 77], [111, 80, 80], [109, 79, 79], [111, 80, 80], [114, 81, 75], [111, 82, 79], [110, 79, 77], [110, 80, 82], [110, 83, 84], [107, 73, 72], [109, 78, 74], [109, 82, 81], [115, 85, 85], [117, 88, 85], [112, 85, 84], [114, 85, 82], [109, 71, 71], [112, 81, 81], [104, 73, 71], [117, 88, 85], [114, 85, 82], [113, 84, 81], [106, 80, 76], [102, 75, 76], [104, 75, 72], [110, 84, 78], [105, 79, 73], [106, 73, 69], [99, 72, 71], [99, 72, 71], [103, 76, 75], [106, 79, 78], [109, 75, 76], [110, 81, 78], [112, 82, 82], [102, 73, 70], [105, 76, 73], [113, 78, 77], [112, 82, 82], [113, 80, 76], [110, 80, 80], [111, 84, 83], [106, 76, 76], [107, 75, 64], [102, 72, 76], [106, 72, 71], [109, 71, 71], [109, 74, 73], [108, 77, 77], [108, 78, 78], [104, 78, 72], [108, 75, 71], [114, 87, 88], [102, 71, 69], [107, 76, 76], [111, 80, 80], [113, 80, 74], [114, 81, 77], [111, 77, 78], [108, 74, 75], [106, 75, 73], [107, 76, 72], [107, 78, 73], [111, 73, 73], [109, 78, 78], [109, 80, 77], [109, 83, 75], [109, 80, 77], [110, 77, 73], [108, 74, 73], [106, 77, 72], [109, 74, 71], [107, 73, 72], [103, 74, 69], [107, 72, 71], [108, 77, 75], [95, 70, 70], [107, 76, 72], [100, 73, 72], [100, 73, 72], [109, 75, 76], [113, 82, 80], [105, 79, 75], [114, 89, 89], [107, 78, 75], [109, 76, 72], [110, 81, 78], [111, 73, 73], [110, 79, 77], [99, 65, 64], [113, 83, 83], [103, 76, 75], [89, 64, 62], [94, 64, 66], [97, 67, 67], [83, 60, 62], [95, 68, 67], [100, 71, 66], [102, 76, 72], [100, 73, 72], [107, 72, 71], [102, 72, 72], [103, 73, 75], [101, 71, 73], [100, 71, 68], [107, 74, 70], [104, 73, 71], [106, 75, 71], [105, 75, 77], [101, 72, 69], [98, 76, 73], [107, 80, 79], [106, 79, 78], [105, 76, 71], [109, 80, 77], [107, 78, 75], [108, 77, 77], [103, 73, 75], [108, 70, 70], [104, 73, 69], [107, 76, 76], [104, 73, 69], [106, 75, 75], [102, 77, 77], [100, 73, 72], [103, 69, 68], [102, 72, 74], [106, 71, 70], [104, 75, 70], [107, 73, 72], [105, 76, 73], [105, 74, 72], [106, 68, 68], [103, 72, 70], [99, 72, 71], [103, 75, 79], [103, 72, 72], [101, 72, 69], [105, 67, 65], [103, 68, 67], [105, 66, 69], [106, 73, 69], [103, 69, 68], [105, 70, 69], [108, 70, 61], [106, 72, 71], [105, 75, 75], [94, 63, 61], [104, 74, 74], [108, 76, 81], [99, 64, 63], [109, 76, 72], [102, 76, 72], [107, 77, 77], [98, 71, 72], [100, 73, 74], [100, 69, 67], [109, 71, 69], [117, 83, 82], [126, 91, 86], [103, 69, 61], [108, 79, 76], [114, 87, 86], [111, 88, 88], [98, 73, 71], [117, 87, 89], [112, 90, 87], [102, 73, 70], [96, 69, 70], [103, 72, 72], [111, 80, 80], [118, 78, 79], [116, 78, 76], [105, 71, 70], [115, 88, 87], [99, 72, 71], [105, 76, 71], [107, 78, 73], [107, 77, 68], [106, 71, 66], [107, 72, 71], [103, 72, 70], [98, 65, 61], [102, 71, 69], [99, 70, 67], [100, 73, 72], [104, 73, 71], [106, 77, 74], [112, 87, 83], [116, 91, 89], [105, 76, 73], [100, 73, 72], [98, 67, 67], [114, 93, 90], [108, 85, 85], [115, 86, 83], [112, 82, 82], [106, 83, 83], [109, 83, 79], [110, 76, 79], [107, 78, 75], [107, 74, 68], [107, 74, 70], [104, 73, 71], [112, 82, 82], [109, 83, 77], [106, 83, 85], [112, 82, 82], [104, 73, 71], [107, 78, 75], [104, 74, 74], [94, 72, 67], [116, 87, 84], [98, 68, 68], [102, 71, 71], [93, 68, 66], [101, 74, 73], [102, 77, 73], [103, 73, 73], [97, 69, 75], [105, 78, 77], [101, 71, 71], [99, 72, 71], [101, 70, 70], [100, 74, 70], [91, 66, 64], [108, 79, 76], [101, 78, 78], [104, 74, 74], [106, 72, 71], [105, 71, 70], [105, 70, 65], [102, 75, 74], [103, 72, 70], [105, 71, 70], [108, 73, 70], [105, 74, 74], [112, 74, 72], [101, 76, 72], [104, 80, 73], [99, 70, 67], [112, 82, 82], [104, 73, 71], [106, 66, 67], [105, 79, 75], [110, 81, 76], [107, 76, 76], [105, 78, 79], [109, 75, 74], [113, 82, 82], [104, 77, 76], [109, 84, 82], [107, 81, 77], [105, 79, 73], [113, 83, 83], [106, 75, 73], [109, 71, 69], [110, 84, 80], [110, 80, 80], [108, 81, 80], [109, 83, 79], [108, 82, 78], [107, 76, 72], [107, 77, 70], [107, 76, 74], [105, 77, 69], [108, 77, 73], [111, 78, 74], [106, 80, 76], [110, 79, 75], [114, 80, 79], [110, 83, 84], [115, 86, 81], [110, 80, 80], [112, 83, 80], [103, 77, 73], [114, 87, 88], [114, 87, 86], [115, 88, 87], [115, 85, 85], [107, 81, 77], [124, 91, 83], [118, 89, 86], [97, 66, 66], [94, 67, 68], [99, 69, 69], [113, 86, 85], [100, 75, 73], [104, 69, 68], [106, 73, 69], [103, 73, 73], [102, 71, 69], [103, 69, 68], [104, 74, 74], [97, 67, 67], [96, 66, 68], [100, 71, 68], [101, 72, 69], [104, 77, 78], [108, 83, 81], [104, 73, 73], [104, 74, 76], [102, 73, 70], [101, 66, 63], [107, 76, 76], [105, 78, 77], [109, 82, 83], [111, 80, 80], [106, 80, 74], [111, 77, 76], [109, 76, 68], [104, 70, 69], [101, 72, 69], [103, 72, 70], [106, 76, 76], [109, 78, 78], [105, 78, 79], [110, 79, 77], [96, 69, 68], [99, 68, 68], [117, 86, 84], [94, 64, 66], [104, 74, 67], [122, 92, 92], [122, 97, 95], [99, 65, 66], [102, 71, 69], [130, 96, 97], [110, 76, 77], [105, 80, 80], [107, 77, 77], [112, 87, 85], [110, 89, 88], [111, 88, 88], [110, 80, 80], [105, 81, 74], [98, 77, 76], [102, 76, 70], [112, 79, 75], [99, 68, 66], [100, 70, 70], [102, 73, 70], [107, 77, 79], [109, 74, 73], [104, 78, 74], [104, 70, 69], [90, 65, 61], [95, 69, 65], [111, 78, 74], [115, 84, 84], [126, 88, 86], [118, 87, 87], [116, 82, 81], [108, 73, 70], [97, 67, 67], [106, 76, 76], [110, 79, 79], [111, 81, 81], [109, 74, 71], [100, 75, 75], [101, 66, 65], [112, 80, 83], [121, 86, 81], [95, 64, 62], [121, 87, 86], [109, 79, 83], [96, 61, 60], [106, 64, 61], [103, 65, 65], [106, 76, 78], [109, 78, 78], [97, 70, 69], [105, 75, 77], [113, 82, 80], [117, 86, 84], [109, 75, 74], [96, 65, 65], [107, 81, 77], [108, 77, 75], [104, 70, 71], [102, 71, 71], [101, 72, 69], [106, 71, 66], [109, 78, 74], [104, 73, 73], [107, 77, 77], [110, 72, 70], [104, 70, 69], [90, 68, 65], [103, 78, 78], [94, 67, 66], [94, 69, 67], [91, 64, 65], [95, 65, 65], [98, 68, 68], [99, 65, 64], [104, 78, 72], [98, 71, 70], [99, 59, 60], [90, 67, 67], [107, 78, 73], [100, 74, 70], [102, 72, 72], [106, 75, 75], [112, 81, 81], [111, 80, 78], [113, 82, 82], [113, 82, 80], [113, 87, 83], [121, 92, 89], [118, 88, 90], [121, 91, 93], [122, 88, 89], [105, 80, 78], [110, 80, 80], [105, 80, 80], [85, 58, 57], [89, 59, 59], [96, 67, 64], [95, 69, 65], [95, 68, 67], [103, 73, 75], [101, 75, 69], [90, 64, 60], [100, 75, 73], [104, 77, 76], [106, 76, 76], [104, 78, 74], [106, 76, 76], [107, 80, 79], [108, 74, 77], [107, 74, 70], [112, 87, 83], [112, 87, 85], [112, 85, 84], [115, 85, 85], [113, 86, 87], [109, 74, 71], [112, 86, 82], [109, 78, 74], [109, 73, 75], [114, 81, 77], [110, 81, 76], [113, 84, 81], [111, 73, 73], [112, 79, 73], [109, 78, 76], [106, 79, 78], [112, 81, 79], [107, 77, 70], [115, 84, 82], [115, 88, 87], [104, 78, 74], [106, 77, 74], [103, 74, 71], [114, 84, 84], [105, 75, 75], [107, 77, 77], [104, 77, 76], [107, 80, 81], [113, 84, 81], [112, 85, 84], [115, 85, 87], [110, 83, 82], [101, 67, 68], [116, 87, 82], [103, 73, 73], [101, 76, 74], [103, 74, 71], [115, 86, 81], [110, 83, 82], [108, 78, 78], [112, 85, 84], [113, 82, 78], [112, 74, 72], [110, 76, 68], [113, 84, 81], [111, 85, 81], [107, 81, 77], [106, 76, 76], [97, 75, 72], [100, 73, 72], [103, 74, 71], [102, 77, 75], [105, 75, 75], [106, 76, 76], [108, 81, 80], [105, 75, 75], [106, 77, 72], [103, 72, 72], [98, 72, 68], [100, 70, 70], [100, 70, 70], [103, 71, 74], [98, 71, 70], [101, 67, 66], [106, 76, 76], [107, 73, 74], [105, 71, 74], [100, 73, 72], [109, 67, 66], [107, 72, 71], [104, 73, 71], [109, 72, 67], [105, 70, 65], [105, 70, 69], [104, 73, 71], [103, 72, 72], [103, 76, 75], [96, 66, 68], [95, 65, 65], [106, 81, 77], [100, 75, 73], [105, 74, 72], [106, 74, 77], [110, 80, 80], [108, 74, 73], [102, 75, 74], [100, 74, 70], [105, 80, 78], [109, 82, 81], [106, 85, 84], [110, 85, 85], [106, 80, 83], [103, 78, 76], [104, 75, 72], [102, 73, 68], [94, 67, 68], [97, 67, 67], [97, 72, 70], [97, 72, 70], [95, 72, 74], [97, 71, 67], [101, 70, 68], [92, 70, 67], [98, 72, 68], [98, 73, 71], [97, 73, 66], [101, 71, 73], [104, 79, 75], [104, 78, 74], [99, 69, 69], [101, 71, 73], [96, 69, 68], [98, 73, 71], [97, 69, 73], [102, 75, 76], [106, 80, 74], [94, 67, 66], [111, 84, 85], [109, 82, 81], [97, 68, 65], [98, 68, 68], [108, 84, 77], [95, 60, 59], [101, 64, 57], [114, 85, 80], [109, 82, 81], [99, 74, 72], [99, 70, 67], [109, 75, 74], [104, 73, 71], [102, 75, 74], [116, 83, 79], [110, 80, 84], [103, 65, 65], [114, 80, 79], [102, 67, 66], [111, 81, 85], [113, 80, 74], [124, 90, 91], [106, 71, 68], [117, 85, 88], [110, 68, 65], [106, 72, 73], [105, 74, 72], [104, 73, 71], [104, 73, 73], [111, 84, 85], [109, 82, 81], [113, 88, 86], [102, 72, 65], [105, 74, 72], [110, 75, 74], [108, 77, 73], [108, 79, 76], [104, 74, 74], [103, 74, 71], [107, 76, 74], [107, 78, 75], [116, 87, 84], [105, 74, 70], [105, 74, 74], [106, 71, 70], [114, 84, 84], [109, 78, 78], [122, 93, 90], [121, 90, 90], [119, 89, 89], [116, 86, 86], [110, 77, 73], [110, 78, 81], [110, 78, 81], [110, 80, 80], [109, 83, 79], [116, 87, 84], [115, 84, 82], [110, 79, 75], [111, 82, 79], [112, 81, 77], [109, 80, 77], [116, 85, 85], [113, 82, 80], [115, 84, 80], [112, 82, 75], [114, 80, 79], [106, 72, 71], [115, 84, 82], [116, 90, 84], [107, 81, 77], [108, 83, 81], [114, 83, 83], [111, 84, 83], [117, 87, 87], [113, 86, 85], [114, 83, 83], [116, 85, 85], [115, 89, 85], [116, 87, 84], [112, 85, 86], [116, 86, 86], [109, 67, 66], [106, 77, 72], [117, 86, 84], [113, 79, 78], [114, 87, 86], [116, 85, 83], [112, 81, 81], [115, 81, 80], [113, 83, 83], [113, 82, 80], [112, 87, 87], [113, 82, 82], [113, 80, 74], [116, 88, 92], [110, 83, 82], [113, 86, 87], [117, 83, 82], [113, 82, 80], [110, 84, 78], [108, 81, 80], [108, 78, 80], [109, 75, 74], [109, 79, 79], [108, 77, 75], [117, 86, 82], [118, 87, 83], [109, 76, 70], [110, 77, 71], [110, 80, 80], [111, 79, 82], [117, 83, 82], [115, 80, 79], [112, 81, 81], [113, 82, 82], [114, 85, 82], [115, 85, 85], [112, 87, 85], [112, 87, 85], [119, 92, 91], [124, 86, 86], [116, 87, 82], [118, 89, 86], [116, 86, 88], [114, 87, 86], [113, 84, 81], [111, 81, 85], [113, 83, 76], [107, 77, 77], [118, 89, 86], [108, 78, 78], [110, 79, 79], [114, 84, 77], [115, 81, 82], [112, 78, 77], [119, 88, 88], [120, 87, 83], [121, 89, 92], [116, 87, 84], [109, 75, 76], [107, 76, 76], [111, 77, 78], [109, 75, 76], [103, 77, 73], [102, 71, 69], [103, 77, 73], [108, 75, 71], [96, 70, 66], [99, 72, 71], [103, 76, 75], [104, 75, 72], [100, 71, 68], [97, 72, 68], [91, 64, 63], [96, 68, 72], [105, 80, 80], [111, 84, 83], [111, 84, 83], [101, 70, 68], [114, 88, 84], [116, 87, 82], [101, 74, 73], [99, 74, 72], [109, 76, 72], [111, 82, 79], [114, 85, 82], [91, 49, 44], [110, 77, 71], [114, 88, 84], [110, 85, 83], [111, 86, 82], [113, 91, 88], [102, 72, 74], [109, 80, 77], [110, 80, 80], [109, 78, 74], [111, 80, 80], [113, 84, 81], [115, 86, 83], [115, 84, 82], [116, 87, 84], [115, 84, 84], [112, 85, 86], [108, 77, 77], [102, 73, 68], [105, 83, 80], [106, 81, 81], [101, 80, 79], [100, 73, 74], [102, 77, 77], [102, 80, 77], [102, 77, 75], [108, 79, 76], [102, 71, 71], [101, 74, 75], [102, 76, 72], [108, 77, 75], [102, 79, 79], [107, 80, 81], [107, 77, 79], [118, 88, 88], [118, 89, 86], [115, 88, 87], [118, 89, 86], [118, 93, 91], [119, 90, 85], [122, 91, 89], [117, 87, 80], [109, 82, 81], [100, 62, 62], [101, 61, 64], [107, 65, 60], [99, 62, 57], [96, 67, 64], [86, 61, 61], [105, 78, 77], [103, 75, 79], [100, 75, 73], [102, 72, 74], [98, 73, 69], [98, 73, 69], [97, 71, 67], [107, 80, 79], [110, 80, 80], [106, 80, 76], [107, 76, 72], [102, 75, 76], [110, 85, 83], [111, 86, 86], [107, 72, 71], [115, 84, 84], [88, 57, 55], [91, 58, 52], [111, 84, 83], [102, 77, 75], [97, 67, 67], [106, 79, 78], [104, 77, 78], [114, 89, 87], [106, 75, 71], [109, 75, 74], [103, 73, 75], [117, 83, 84], [101, 71, 73], [103, 76, 75], [103, 77, 71], [105, 79, 75], [104, 81, 81], [106, 81, 81], [107, 82, 82], [108, 81, 82], [103, 81, 78], [108, 83, 79], [108, 83, 81], [103, 72, 70], [101, 72, 67], [107, 84, 88], [105, 82, 82], [103, 76, 77], [103, 73, 75], [103, 72, 70], [112, 82, 82], [101, 71, 71], [99, 74, 74], [100, 75, 75], [100, 75, 73], [102, 77, 77], [103, 76, 75], [97, 74, 76], [99, 74, 74], [113, 84, 81], [94, 68, 64], [94, 67, 66], [98, 71, 72], [100, 69, 67], [109, 82, 83], [111, 77, 76], [101, 71, 71], [114, 84, 84], [106, 79, 80], [101, 75, 71], [100, 75, 73], [99, 72, 73], [102, 75, 74], [98, 68, 59], [100, 66, 67], [108, 64, 62], [108, 70, 68], [107, 72, 71], [110, 83, 82], [112, 83, 80], [110, 84, 80], [110, 84, 80], [111, 80, 80], [101, 74, 75], [106, 72, 71], [113, 86, 85], [103, 80, 80], [101, 74, 75], [100, 66, 67], [100, 77, 77], [110, 83, 84], [115, 85, 85], [95, 66, 63], [100, 65, 62], [101, 68, 64], [105, 80, 76], [110, 85, 85], [112, 81, 81], [103, 73, 73], [112, 82, 86], [110, 79, 79], [108, 86, 83], [113, 84, 81], [111, 86, 84], [112, 82, 82], [102, 73, 70], [107, 81, 77], [95, 70, 66], [95, 74, 71], [108, 81, 82], [91, 65, 61], [111, 80, 76], [110, 80, 80], [99, 69, 69], [98, 72, 68], [104, 74, 74], [102, 77, 77], [106, 80, 83], [108, 83, 83], [103, 82, 83], [102, 79, 79], [106, 79, 78], [101, 78, 78], [103, 80, 82], [111, 84, 83], [101, 66, 61], [103, 72, 68], [102, 72, 74], [104, 73, 71], [105, 71, 70], [103, 70, 62], [101, 66, 65], [101, 70, 68], [122, 88, 87], [104, 73, 69], [122, 87, 86], [110, 83, 84], [103, 85, 83], [103, 82, 83], [100, 75, 73], [105, 76, 73], [99, 74, 72], [95, 70, 68], [111, 80, 78], [115, 81, 80], [109, 80, 77], [112, 87, 85], [116, 91, 87], [113, 82, 82], [115, 81, 82], [90, 59, 59], [95, 61, 60], [91, 61, 61], [98, 65, 57], [101, 63, 61], [103, 65, 65], [101, 71, 71], [104, 73, 71], [107, 76, 76], [105, 74, 72], [106, 75, 73], [105, 79, 75], [109, 80, 77], [109, 82, 81], [114, 83, 83], [105, 79, 75], [102, 80, 77], [109, 79, 79], [100, 79, 76], [106, 79, 80], [107, 80, 81], [104, 76, 80], [105, 73, 76], [104, 74, 76], [102, 75, 76], [102, 72, 72], [116, 87, 84], [100, 78, 71], [102, 77, 75], [100, 75, 75], [101, 74, 73], [100, 73, 72], [102, 72, 72], [97, 74, 74], [96, 71, 69], [102, 74, 78], [104, 76, 80], [104, 83, 84], [96, 67, 64], [96, 65, 65], [104, 71, 67], [103, 74, 71], [107, 80, 81], [111, 84, 85], [114, 84, 84], [114, 83, 79], [117, 87, 87], [113, 86, 87], [114, 84, 84], [111, 86, 82], [114, 88, 82], [109, 84, 84], [98, 73, 71], [111, 81, 81], [116, 82, 81], [113, 86, 87], [108, 82, 85], [115, 86, 81], [114, 87, 88], [114, 87, 88], [115, 85, 87], [112, 85, 86], [114, 84, 84], [115, 85, 85], [113, 88, 88], [114, 84, 84], [115, 84, 84], [108, 83, 81], [114, 87, 86], [113, 84, 81], [108, 85, 85], [101, 74, 75], [117, 87, 87], [118, 88, 88], [115, 86, 83], [113, 83, 85], [112, 85, 86], [114, 85, 82], [109, 82, 83], [118, 87, 85], [110, 85, 81], [101, 72, 69], [112, 87, 85], [113, 86, 85], [111, 86, 86], [112, 86, 82], [108, 77, 75], [119, 88, 88], [111, 86, 86], [112, 85, 84], [112, 85, 86], [113, 83, 83], [109, 82, 83], [109, 84, 80], [111, 85, 81], [115, 86, 83], [111, 80, 78], [103, 76, 75], [106, 75, 73], [106, 79, 78], [112, 82, 82], [114, 83, 81], [103, 77, 73], [104, 79, 77], [106, 79, 80], [115, 90, 90], [107, 80, 81], [121, 91, 91], [109, 78, 74], [112, 81, 79], [113, 83, 85], [107, 86, 87], [116, 87, 84], [107, 73, 74], [122, 88, 87], [126, 86, 87], [120, 94, 90], [112, 78, 77], [110, 76, 75], [124, 86, 84], [114, 77, 72], [120, 85, 84], [123, 88, 87], [117, 86, 86], [117, 83, 84], [116, 87, 84], [117, 87, 87], [117, 91, 85], [112, 86, 82], [111, 84, 85], [112, 86, 80], [111, 86, 86], [120, 86, 85], [117, 89, 81], [118, 84, 85], [105, 72, 68], [110, 80, 80], [111, 85, 79], [114, 84, 84], [114, 88, 84], [111, 85, 81], [110, 85, 83], [113, 83, 83], [108, 81, 80], [112, 85, 86], [111, 84, 83], [112, 86, 82], [116, 87, 84], [113, 86, 85], [115, 86, 81], [112, 81, 79], [112, 86, 82], [112, 82, 82], [109, 79, 79], [112, 82, 84], [112, 85, 84], [109, 83, 86], [109, 84, 84], [115, 84, 84], [115, 86, 83], [112, 82, 82], [115, 89, 85], [113, 86, 85], [109, 80, 77], [112, 85, 86], [106, 84, 81], [108, 86, 83], [108, 83, 83], [111, 86, 86], [116, 86, 86], [109, 87, 84], [107, 85, 82], [108, 81, 80], [110, 80, 80], [115, 84, 84], [114, 88, 91], [109, 87, 84], [114, 88, 84], [121, 85, 89], [106, 72, 73], [113, 87, 83], [102, 79, 79], [101, 76, 74], [99, 73, 76], [103, 81, 78], [103, 82, 81], [102, 71, 69], [107, 77, 77], [111, 85, 81], [117, 85, 88], [114, 89, 87], [114, 89, 85], [109, 79, 79], [117, 84, 80], [111, 84, 83], [113, 85, 89], [120, 81, 86], [110, 85, 81], [113, 87, 83], [114, 84, 86], [119, 86, 82], [114, 84, 84], [107, 84, 84], [108, 78, 78], [109, 76, 72], [123, 89, 88], [110, 75, 72], [111, 73, 71], [108, 77, 75], [111, 80, 78], [114, 84, 84], [116, 85, 83], [116, 87, 84], [115, 85, 85], [111, 85, 81], [109, 84, 82], [108, 81, 80], [110, 79, 79], [110, 84, 78], [107, 81, 77], [112, 81, 81], [106, 85, 86], [107, 86, 87], [115, 84, 84], [124, 90, 89], [124, 90, 89], [125, 86, 82], [111, 84, 83], [112, 85, 84], [109, 82, 83], [110, 81, 78], [109, 84, 80], [110, 85, 85], [115, 85, 85], [112, 89, 89], [112, 89, 91], [117, 83, 84], [112, 85, 84], [108, 85, 85], [111, 84, 85], [111, 86, 86], [115, 88, 87], [124, 91, 87], [127, 92, 91], [123, 92, 88], [122, 88, 80], [127, 89, 87], [121, 87, 88], [125, 91, 90], [118, 91, 92], [114, 91, 93], [120, 90, 90], [128, 90, 90], [121, 86, 83], [121, 88, 82], [115, 90, 90], [114, 84, 84], [114, 83, 83], [114, 85, 80], [116, 87, 82], [114, 84, 84], [115, 89, 85], [113, 88, 84], [116, 85, 83], [109, 87, 84], [115, 84, 84], [114, 83, 83], [112, 86, 82], [111, 85, 81], [106, 85, 84], [113, 86, 85], [112, 87, 83], [117, 86, 86], [113, 88, 84]]
