[165.94402277039848, 165.70208728652753, 166.12992831541217, 165.9399641577061, 165.43650793650792, 165.74462365591398, 165.44179894179894, 165.39770723104056, 165.34303350970018, 165.46737213403878, 165.0028011204482, 165.54144620811286, 165.11297852474323, 165.18487394957984, 165.23062558356676, 165.05555555555554, 165.7675521821632, 165.7874762808349, 165.46591970121383, 165.87476280834915, 165.02821869488534, 164.84920634920633, 164.60493827160494, 164.7320788530466, 164.64068100358423, 164.40232974910396, 164.26254480286738, 164.26433691756273, 164.5550284629981, 164.61764705882354, 164.46110056925997, 164.50474383301707, 164.52277039848198, 164.52087286527515, 164.6223908918406, 164.71537001897534, 164.66223908918406, 164.8292220113852, 164.9013282732448, 164.97248576850095, 165.08159392789375, 164.0485008818342, 164.5673624288425, 163.9605734767025, 164.24478178368122, 164.11290322580646, 163.83006535947712, 164.49014336917563, 164.3709677419355, 164.00948766603415, 164.31810035842295, 164.6810035842294, 164.18026565464896, 163.98972922502335, 164.14098972922503, 164.16900093370683, 164.75396825396825, 164.3221288515406, 164.88359788359787, 164.2715053763441, 164.81309297912713, 164.79629629629628, 164.11671335200748, 163.74820788530465, 163.81989247311827, 163.48677248677248, 163.4611992945326, 163.76702508960574, 163.9234360410831, 164.07096171802056, 164.22875816993465, 164.18394024276378, 164.21101774042953, 164.3501400560224, 164.2857142857143, 164.51727357609712, 165.13668430335096, 165.17724867724866, 165.21781305114638, 165.03086419753086, 165.02910052910053, 164.88359788359787, 164.38842203548086, 164.79805996472663, 164.831569664903, 164.93386243386243, 164.88007054673722, 165.3109318996416, 165.0520282186949, 165.06525573192238, 165.19841269841268, 165.29805996472663, 165.32186948853615, 165.331569664903, 165.36772486772486, 165.44620811287476, 165.47619047619045, 165.36419753086417, 165.2874779541446, 164.94771241830065, 164.27248677248676, 164.35449735449734, 164.39858906525572, 165.37037037037035, 164.91812865497076, 165.0735171261487, 164.58906525573192, 164.82275132275132, 164.90828924162255, 164.9620811287478, 165.32974910394265, 165.45250896057348, 165.36772486772486, 164.55820105820104, 164.9390681003584, 164.75, 164.39219015280136, 164.81989247311827, 164.85931899641577, 164.5379188712522, 164.3446519524618, 164.94802867383513, 164.16791979949875, 164.4711375212224, 164.24394319131162, 164.57979626485567, 164.55388471177943, 164.63241436925645, 164.44086021505376, 164.44623655913978, 164.82289055973266, 165.20194003527337, 165.29188712522046, 165.1058201058201, 164.98500881834215, 164.4828738512949, 164.50041771094402, 164.8589065255732, 164.50960735171262, 164.5112781954887, 164.88624338624336, 164.9047619047619, 164.91887125220458, 164.6516290726817, 164.17548500881833, 165.20987654320987, 164.95906432748538, 165.39770723104056, 165.39858906525572, 165.2954144620811, 165.3668430335097, 165.31657848324514, 165.2151675485009, 165.1031746031746, 164.92504409171076, 164.92239858906524, 164.89594356261023, 164.84038800705466, 164.87125220458552, 164.79188712522046, 165.1290322580645, 165.18279569892474, 164.9012345679012, 164.93827160493825, 165.23655913978496, 165.18783068783068, 165.41935483870967, 165.28571428571428, 165.33333333333331, 165.33245149911815, 165.336917562724, 165.11022927689592, 164.97089947089947, 164.17831541218638, 163.87918871252202, 164.79629629629628, 164.83245149911815, 164.7636684303351, 163.836860670194, 163.80511463844798, 163.93562610229276, 163.9206349206349, 163.64149305555554, 164.15343915343914, 164.19047619047618, 164.17460317460316, 164.80868838763575, 164.8020050125313, 164.73182957393482, 163.66232638888889, 163.77777777777777, 163.6931216931217, 163.5599647266314, 163.38447971781304, 163.17548500881833, 163.23456790123456, 164.10141093474425, 163.18518518518516, 163.7393483709273, 163.81954887218043, 163.83542188805345, 163.96908939014202, 163.86131996658312, 163.9749373433584, 163.9607351712615, 164.27336860670192, 163.4987468671679, 163.82451499118164, 163.67195767195767, 163.19298245614033, 163.56261022927688, 163.4541446208113, 163.45238095238093, 163.4126984126984, 163.50529100529099, 163.515873015873, 163.42768959435625, 163.53880070546737, 163.58730158730157, 163.57495590828924, 163.6816578483245, 163.79365079365078, 163.70282186948853, 163.63492063492063, 163.37389770723104, 163.42945326278658, 163.30776014109347, 163.179012345679, 163.6315789473684, 163.62406015037593, 163.7109440267335, 164.23192239858906, 163.3815789473684, 163.8796992481203, 163.9030910609858, 163.99415204678363, 164.15121136173767, 163.74338624338623, 164.27568922305764, 164.468671679198, 163.73280423280423, 163.94534050179212, 163.8557347670251, 163.43827160493825, 163.36155202821868, 163.363315696649, 163.1463844797178, 163.35978835978835, 163.13051146384478, 163.30246913580245, 163.05295138888889, 163.52116402116403, 163.5, 163.77513227513228, 163.5, 163.94973544973544, 163.9541446208113, 164.01499118165785, 163.81657848324514, 163.64021164021162, 163.49382716049382, 163.663139329806, 163.56084656084656, 163.46649029982362, 163.54144620811286, 163.5758377425044, 163.73192239858906, 163.73192239858906, 163.9312169312169, 163.85714285714286, 164.1216931216931, 164.17548500881833, 164.2742504409171, 164.22398589065256, 164.26014109347443, 164.07671957671957, 164.02292768959435, 163.8941798941799, 163.9885361552028, 163.9320987654321, 163.80423280423278, 163.91975308641975, 163.9611992945326, 163.842151675485, 163.93298059964727, 163.59982638888889, 164.04761904761904, 164.1216931216931, 164.5597326649958, 164.65998329156224, 164.6641604010025, 164.09347442680775, 164.12345679012344, 163.9479717813051, 163.99647266313931, 164.07936507936506, 164.13139329805995, 164.13668430335096, 164.18694885361552, 164.22927689594354, 164.31040564373896, 164.30246913580245, 164.38183421516754, 164.51940035273367, 164.7010582010582, 164.61816578483246, 164.66402116402116, 164.51041666666666, 164.87566137566137, 164.42708333333331, 164.68253968253967, 164.7231040564374, 164.28385416666666, 164.59964726631392, 164.82275132275132, 164.7142857142857, 164.8015873015873, 164.51796157059314, 165.0837742504409, 164.2089947089947, 165.2389770723104, 165.15343915343914, 164.3694885361552, 164.28835978835977, 165.21604938271605, 164.95943562610228, 164.95149911816577, 163.95238095238093, 164.97971781305114, 163.97619047619045, 164.99294532627866, 165.04144620811286, 164.72395833333331, 164.7890625, 165.06613756613757, 164.69841269841268, 165.2574955908289, 164.9114452798663, 165.03258145363407, 165.07936507936506, 164.71792763157893, 164.35802469135803, 164.2142857142857, 164.09171075837742, 163.9911816578483, 163.84038800705466, 164.10442773600667, 164.56525573192238, 164.67813051146385, 164.53968253968253, 164.5299823633157, 164.6058201058201, 164.24305555555554, 164.76719576719574, 164.82363315696648, 164.78924162257493, 164.68253968253967, 164.49559082892415, 164.27336860670192, 164.15696649029982, 164.0643738977072, 164.01410934744268, 163.97971781305114, 164.04761904761904, 163.95399305555554, 164.17548500881833, 163.31040564373896, 163.38359788359787, 163.77956989247312, 163.265625, 163.88702147525677, 163.07495590828924, 163.10670194003526, 163.820987654321, 163.5784832451499, 164.3046875, 163.7010582010582, 164.1938178780284, 164.60405643738977, 164.61022927689592, 164.32581453634083, 163.90564373897706, 163.92768959435625, 164.0564373897707, 163.88368055555554, 164.11458333333331, 164.27513227513228, 164.08906525573192, 163.97707231040565, 163.98765432098764, 163.87830687830686, 163.38888888888889, 163.47135416666666, 163.47569444444443, 163.831569664903, 163.852733686067, 163.80246913580245, 163.97354497354496, 163.63715277777777, 163.85463659147868, 164.2389770723104, 164.05642361111111, 164.4021164021164, 164.484126984127, 164.40917107583775, 163.82899305555554, 163.6675347222222, 163.92857142857142, 163.45746527777777, 163.31829573934837, 162.74250440917106, 163.7336860670194, 163.7063492063492, 163.7416225749559, 163.80864197530863, 163.85097001763668, 163.8395061728395, 163.90917107583775, 163.96031746031744, 164.0784832451499, 164.13139329805995, 164.13051146384478, 164.04938271604937, 163.852733686067, 163.55989583333331, 163.44184027777777, 163.39496527777777, 163.32986111111111, 163.4609375, 163.44357638888889, 163.42621527777777, 163.77513227513228, 163.85802469135803, 163.92151675485007, 163.95767195767195, 164.14197530864197, 164.25925925925924, 164.29629629629628, 164.35097001763668, 164.44973544973544, 164.32980599647266, 164.22134038800704, 164.16843033509699, 164.02380952380952, 163.89947089947088, 164.00352733686066, 164.1243386243386, 164.16666666666666, 163.71006944444443, 164.22486772486772, 164.19753086419752, 163.96527777777777, 164.30599647266314, 164.41622574955906, 164.484126984127, 164.51940035273367, 164.4911816578483, 164.31657848324514, 164.16931216931215, 164.2336860670194, 164.14197530864197, 163.97395833333331, 163.94704861111111, 164.05208333333331, 164.352733686067, 164.45679012345678, 164.50176366843033, 164.657848324515, 164.71781305114638, 164.7142857142857, 164.85361552028218, 164.54079861111111, 164.66319444444443, 164.5390625, 164.7910052910053, 164.68077601410934, 164.60493827160494, 164.47707231040565, 164.4726631393298, 164.33774250440916, 164.49735449735448, 164.4400352733686, 164.48148148148147, 164.55291005291005, 164.27234753550542, 164.01480263157893, 164.92151675485007, 164.19325657894737, 164.34621710526315, 163.83246527777777, 164.09375, 163.53559027777777, 163.79805996472663, 163.73985890652557, 163.68783068783068, 163.68871252204585, 163.71252204585537, 163.68694885361552, 163.66931216931215, 163.70811287477954, 163.7195767195767, 163.73456790123456, 163.76455026455025, 163.84920634920633, 164.51378446115288, 163.96031746031744, 163.8447971781305, 163.67724867724866, 163.61904761904762, 163.57760141093473, 163.44620811287476, 163.4100529100529, 163.7679211469534, 163.58818342151673, 163.62316176470588, 163.57319223985888, 163.20746527777777, 163.5758377425044, 163.5784832451499, 163.4487847222222, 163.52604166666666, 163.5625, 163.6922398589065, 163.53968253968253, 163.4453262786596, 163.8955722639933, 163.27601410934744, 163.21075837742504, 163.28306878306879, 163.9565580618212, 163.92147034252295, 163.50617283950618, 163.66402116402116, 163.53880070546737, 163.72486772486772, 163.87830687830686, 163.76014109347443, 164.0079365079365, 163.74867724867724, 163.64285714285714, 163.5132275132275, 163.48589065255732, 163.43298059964727, 163.37830687830686, 163.40388007054673, 163.36243386243385, 163.41798941798942, 163.45590828924162, 163.50352733686066, 163.59347442680775, 163.78924162257493, 163.92151675485007, 163.94620811287476, 164.07142857142856, 163.88888888888889, 163.61728395061726, 163.74283154121864, 163.65232974910396, 163.62275985663084, 163.55645161290323, 163.5152329749104, 163.7589605734767, 163.59229390681003, 163.29188712522046, 163.3932980599647, 163.3289241622575, 163.55114638447972, 163.63051146384478, 163.6657848324515, 163.7954144620811, 163.78130511463843, 163.62610229276896, 163.48941798941797, 162.90142021720968, 163.25573192239858, 163.23192239858906, 163.1216931216931, 163.44086021505376, 163.1331569664903, 163.14726631393296, 163.38172043010752, 163.5241935483871, 163.23633156966488, 163.24338624338623, 163.30511463844798, 163.55908289241623, 163.60141093474425, 163.39594356261023, 163.27865961199294, 163.15079365079364, 163.35035842293908, 162.99735449735448, 163.05731922398587, 163.12081128747795, 163.73856209150327, 163.36243386243385, 163.1675347222222, 163.35097001763668, 163.51146384479716, 163.38020833333331, 163.32465277777777, 163.6763668430335, 163.81216931216932, 163.7954144620811, 163.57142857142856, 164.0392648287385, 163.48941798941797, 163.40828924162255, 163.56261022927688, 163.42151675485007, 163.5705467372134, 163.47971781305114, 163.831541218638, 163.95698924731184, 163.99014336917563, 163.88712522045856, 163.96031746031744, 164.02821869488534, 164.06349206349205, 164.08024691358023, 164.04938271604937, 163.80423280423278, 163.96774193548387, 163.8557347670251, 163.80913978494624, 163.4885361552028, 163.657848324515, 163.73721340388005, 164.00985663082437, 163.77248677248676, 163.86155202821868, 163.54720133667502, 163.59482038429405, 163.81787802840432, 163.67752715121136, 164.03508771929825, 164.16490299823633, 163.97619047619045, 163.85626102292767, 163.79805996472663, 163.66490299823633, 163.61111111111111, 163.72486772486772, 163.6322751322751, 163.70194003527337, 163.80246913580245, 163.91798941798942, 163.81128747795412, 164.07319223985888, 164.18253968253967, 164.1657848324515, 164.36860670194002, 164.3174603174603, 164.09611992945327, 163.05291005291005, 163.87037037037035, 163.8095238095238, 163.80864197530863, 163.77336860670192, 163.72398589065256, 163.79717813051147, 163.88977072310405, 163.89506172839506, 163.9885361552028, 164.07495590828924, 164.2037037037037, 163.15608465608466, 163.82456140350877, 164.29012345679013, 163.87802840434418, 163.6157059314954, 163.5388471177945, 162.87830687830686, 163.34586466165413, 163.60758377425043, 163.65961199294532, 163.6816578483245, 163.68077601410934, 163.60670194003526, 163.65520282186947, 163.74514991181658, 163.79982363315696, 163.58333333333331, 163.65017361111111, 164.15520282186947, 163.99647266313931, 163.5078125, 163.67813051146385, 163.24826388888889, 163.30335097001762, 162.88541666666666, 163.189594356261, 163.24250440917106, 163.3068783068783, 163.44708994708995, 163.39153439153438, 163.4805996472663, 163.15017361111111, 163.5864197530864, 162.94357638888889, 162.80335097001762, 162.53038194444443, 162.63403880070547, 162.59611992945327, 162.39496527777777, 162.34809027777777, 162.26649305555554, 162.4832451499118, 162.52910052910053, 162.68694885361552, 162.7151675485009, 162.73721340388005, 162.80776014109347, 162.8747795414462, 162.87830687830686, 162.62962962962962, 162.39241622574954, 162.19135802469134, 162.33870967741936, 162.23028673835125, 162.1326164874552, 161.9232804232804, 161.9832451499118, 161.84303350970018, 161.87389770723104, 161.9320987654321, 162.03880070546737, 162.00970017636683, 162.05291005291005, 162.10229276895942, 162.27777777777777, 162.07231040564372, 161.8095238095238, 161.77777777777777, 161.59700176366843, 161.66137566137564, 161.47354497354496, 161.6322751322751, 161.673721340388, 162.03136200716847, 161.70194003527337, 161.73985890652557, 161.8668430335097, 161.9268077601411, 161.84201388888889, 162.48835125448028, 161.64247311827958, 161.90885416666666, 161.96913580246914, 161.29131652661064, 161.27083333333331, 161.2456597222222, 161.0737847222222, 161.14149305555554, 161.24045138888889, 161.23697916666666, 161.32118055555554, 161.6384479717813, 161.81305114638448, 161.86596119929453, 162.07936507936506, 162.1084656084656, 162.28130511463843, 162.34567901234567, 162.24603174603175, 161.9153439153439, 161.76190476190476, 161.73721340388005, 161.62257495590828, 161.50352733686066, 161.4832451499118, 161.55467372134038, 161.62698412698413, 161.59171075837742, 161.58024691358023, 161.81216931216932, 161.89153439153438, 162.00970017636683, 162.05379188712521, 162.1137566137566, 162.3148148148148, 162.2821869488536, 162.02292768959435, 161.92768959435625, 161.7142857142857, 161.7063492063492, 161.62698412698413, 161.6278659611993, 161.64550264550263, 161.60405643738977, 161.63403880070547, 161.75485008818342, 161.82716049382717, 161.89153439153438, 161.94620811287476, 162.11728395061726, 162.4668458781362, 162.30599647266314, 162.6415770609319, 161.91666666666666, 161.84920634920633, 161.63932980599645, 161.70987654320987, 161.852733686067, 161.67989417989418, 161.82804232804233, 161.88712522045856, 162.17553688141925, 161.81569664902997, 162.32866479925303, 161.99029982363314, 162.58636788048554, 162.2495590828924, 162.73387096774192, 162.60934744268076, 162.94892473118279, 162.71869488536154, 162.72670250896059, 162.4021164021164, 162.32186948853615, 162.28659611992944, 162.2389770723104, 162.18694885361552, 162.40035273368605, 162.25573192239858, 162.48677248677248, 162.57319223985888, 162.64814814814815, 162.836860670194, 162.84567901234567, 162.59899749373432, 162.08730158730157, 163.50089605734766, 163.08024691358023, 162.8968253968254, 162.88447971781304, 161.91360294117646, 162.0448028673835, 161.87275985663084, 161.77248677248676, 161.842151675485, 162.34733893557424, 162.01675485008818, 162.09611992945327, 162.24867724867724, 162.38624338624336, 162.22865275142314, 162.41666666666666, 162.7151675485009, 162.77865961199294, 162.31465919701213, 162.60229276895942, 162.60934744268076, 161.65343915343914, 161.46913580246914, 161.14496527777777, 161.15625, 161.2612847222222, 162.36631944444443, 162.26822916666666, 162.36197916666666, 162.34114583333331, 162.70282186948853, 162.69841269841268, 162.65079365079364, 162.82980599647266, 162.92151675485007, 162.7910052910053, 162.65255731922397, 162.61816578483246, 162.49029982363314, 162.51763668430334, 162.49294532627866, 162.50529100529099, 162.49823633156964, 162.59523809523807, 162.64814814814815, 163.56525573192238, 163.62257495590828, 163.6922398589065, 163.75661375661375, 163.68229166666666, 163.6953125, 163.44184027777777, 163.40538194444443, 163.42881944444443, 163.12885154061627, 162.53968253968253, 163.52028218694883, 162.74867724867724, 163.6922398589065, 163.28384687208217, 162.8853615520282, 163.04938271604937, 163.0520282186949, 162.79427083333331, 163.26984126984127, 163.10677083333331, 162.94270833333331, 162.8003472222222, 163.01410934744268, 162.9620811287478, 162.55989583333331, 162.40538194444443, 162.38541666666666, 162.6657848324515, 162.8289241622575, 162.79805996472663, 162.8553791887125, 162.88007054673722, 163.01940035273367, 163.07142857142856, 163.00705467372134, 163.1701940035273, 163.20546737213402, 163.16754850088182, 162.84303350970018, 162.7469135802469, 162.72486772486772, 162.50086805555554, 162.58112874779542, 162.52116402116403, 162.63756613756613, 162.6137566137566, 162.76278659611992, 162.7742504409171, 162.85185185185185, 162.994708994709, 163.09964726631392, 162.9726631393298, 162.8589065255732, 162.5943562610229, 162.55291005291005, 162.40564373897706, 162.4532627865961, 162.23697916666666, 162.51940035273367, 162.44356261022926, 162.04166666666666, 162.47178130511463, 162.66487455197134, 163.4753086419753, 162.59259259259258, 162.6701940035273, 163.68077601410934, 162.94584500466854, 162.4453262786596, 162.3668430335097, 162.31216931216932, 162.58512544802866, 162.11892361111111, 162.34567901234567, 162.34567901234567, 162.35449735449734, 162.51234567901233, 162.5132275132275, 162.6516754850088, 162.6701940035273, 162.78130511463843, 162.78042328042326, 162.9206349206349, 162.91446208112873, 162.46031746031744, 162.86181139122317, 162.3289241622575, 162.38359788359787, 162.28306878306879, 162.40035273368605, 162.4153439153439, 162.44179894179894, 162.657848324515, 162.59876543209876, 162.78130511463843, 162.86067019400352, 162.70746527777777, 163.15520282186947, 162.73611111111111, 162.99652777777777, 162.78559027777777, 162.97619047619045, 162.5737847222222, 162.64902998236332, 162.375, 162.70017636684304, 162.4753086419753, 162.73456790123456, 162.79365079365078, 162.5864197530864, 163.13440860215053, 163.081541218638, 163.14068100358423, 163.04673721340387, 162.98677248677248, 163.18253968253967, 163.12081128747795, 163.97743055555554, 163.8941798941799, 163.0045955882353, 162.94761029411765, 162.51996527777777, 162.74338624338623, 163.61992945326278, 162.3394097222222, 163.12231559290385, 163.34360410831, 163.64930555555554, 163.4154995331466, 163.0705467372134, 163.6171802054155, 163.04497354497354, 164.1058201058201, 164.4784946236559, 163.72960151802656, 164.18189964157705, 163.72201138519924, 163.14874551971326, 164.07437275985663, 164.06541218637992, 164.0483870967742, 163.48481973434536, 163.05645161290323, 163.31185807656396, 163.92151675485007, 164.13051146384478, 163.62745098039215, 163.31305114638448, 164.29717813051147, 163.37301587301587, 163.40652557319223, 163.48745519713262, 163.2142857142857, 163.38709677419354, 163.14814814814815, 162.96560846560845, 163.08201058201058, 163.09876543209876, 163.3174603174603, 163.57706093189964, 163.30070546737213, 163.41446208112873, 163.52380952380952, 164.01702508960574, 164.10125448028674, 163.75837742504407, 164.18010752688173, 163.62874779541445, 163.5520282186949, 163.4611992945326, 163.32980599647266, 163.23721340388005, 163.15696649029982, 163.45250896057348, 163.15520282186947, 163.21781305114638, 163.23015873015873, 163.37389770723104, 163.50088183421516, 163.5837742504409, 163.81657848324514, 163.673721340388, 163.56261022927688, 163.4453262786596, 163.33421516754848, 163.35394265232975, 162.9620811287478, 163.08553791887124, 163.163139329806, 163.14814814814815, 163.1331569664903, 163.13403880070547, 163.3174603174603, 162.50881834215167, 162.52733686067018, 162.68694885361552, 162.72486772486772, 162.80864197530863, 162.89241622574954, 163.24910394265234, 162.66490299823633, 162.44885361552028, 162.24338624338623, 162.15961199294532, 162.89219015280136, 163.08201058201058, 162.9083191850594, 163.1816578483245, 163.22045855379187, 163.2989417989418, 162.29805996472663, 163.08072916666666, 162.34391534391534, 162.92397660818713, 163.1512605042017, 162.82186948853615, 162.42361111111111, 162.20399305555554, 162.31040564373896, 161.96875, 161.95225694444443, 161.7890625, 161.87152777777777, 162.24514991181658, 162.18342151675483, 162.2530864197531, 162.24603174603175, 162.36860670194002, 162.37566137566137, 162.44620811287476, 162.54409171075838, 162.6437389770723, 162.77865961199294, 162.59347442680775, 162.4585537918871, 162.363315696649, 162.2416225749559, 162.14021164021162, 162.0405643738977, 162.6140350877193, 162.1243386243386, 162.2989417989418, 162.35008818342152, 162.46031746031744, 162.4700176366843, 162.67548500881833, 162.72486772486772, 162.76455026455025, 162.88359788359787, 162.69664902998235, 162.48765432098764, 162.13567362428842, 161.99826388888889, 162.18871252204585, 161.87934027777777, 162.19929453262785, 162.2310405643739, 161.99131944444443, 162.2689594356261, 162.90559732664994, 163.41798941798942, 163.08354218880532, 163.61111111111111, 163.70194003527337, 163.7416225749559, 163.61728395061726, 163.4268077601411, 162.72268907563026, 162.11992945326278, 162.98589065255732, 162.9920634920635, 162.07671957671957, 162.65664160401002, 162.67919799498745, 162.65580618212195, 162.25044091710757, 162.85213032581453, 162.48677248677248, 162.54497354497354, 162.76719576719574, 162.79453262786595, 162.91887125220458, 162.9347442680776, 162.71075837742504, 162.51499118165785, 162.46560846560845, 162.320987654321, 162.2636684303351, 162.26543209876542, 162.59677419354838, 162.07638888888889, 162.48677248677248, 162.47442680776012, 162.52733686067018, 162.6031746031746, 163.0241935483871, 162.7063492063492, 162.91181657848324, 162.96913580246914, 162.47395833333331, 162.63756613756613, 162.53615520282187, 162.57142857142856, 162.52733686067018, 162.36805555555554, 162.34114583333331, 162.42013888888889, 162.5269097222222, 162.50520833333331, 162.863315696649, 162.9074074074074, 163.0326278659612, 163.01234567901233, 163.26719576719574, 163.14462081128747, 163.0458553791887, 163.04232804232802, 162.83597883597884, 162.83597883597884, 162.78395061728395, 162.70811287477954, 163.22974101921469, 162.72398589065256, 163.76190476190476, 162.94444444444443, 163.09523809523807, 163.22927689594354, 163.3095238095238, 163.39770723104056, 163.42592592592592, 163.11992945326278, 163.0899470899471, 162.97971781305114, 162.8068783068783, 162.87389770723104, 162.8721340388007, 162.90917107583775, 162.9012345679012, 162.847442680776, 163.0299823633157, 163.2336860670194, 163.09171075837742, 163.54761904761904, 163.3095238095238, 163.1622574955908, 163.01234567901233, 162.8068783068783, 162.6164021164021, 162.49029982363314, 162.5079365079365, 162.64462081128747, 163.17878028404343, 162.62345679012344, 163.3876357560568, 162.92504409171076, 163.09082892416225, 163.11816578483246, 163.05820105820104, 162.8589065255732, 162.64550264550263, 162.7679211469534, 163.09523809523807, 163.43386243386243, 162.9281537176274, 163.45679012345678, 163.02255639097743, 163.53703703703704, 163.56613756613757, 163.1578947368421, 162.63932980599645, 162.80599647266314, 162.87037037037035, 163.02733686067018, 163.11816578483246, 162.85626102292767, 163.76807760141094, 162.6216931216931, 163.79276895943562, 162.8521505376344, 162.30555555555554, 162.19357638888889, 162.34027777777777, 162.40711805555554, 162.7010582010582, 162.76278659611992, 162.88095238095238, 162.94179894179894, 162.92768959435625, 163.1816578483245, 163.17195767195767, 163.2442680776014, 163.00440917107582, 162.836860670194, 162.57495590828924, 162.41181657848324, 162.6005291005291, 162.3932980599647, 162.21006944444443, 162.5026455026455, 162.7063492063492, 162.70282186948853, 162.87037037037035, 163.08906525573192, 162.7925347222222, 162.6532999164578, 163.20546737213402, 162.85045948203842, 163.38888888888889, 163.12531328320802, 163.48500881834215, 162.86215538847117, 163.03880070546737, 162.89594356261023, 162.45399305555554, 162.863315696649, 162.65961199294532, 162.6657848324515, 162.7389770723104, 162.70811287477954, 162.82363315696648, 162.75044091710757, 162.93386243386243, 162.7416225749559, 163.01146384479716, 163.07407407407408, 163.0599647266314, 163.173721340388, 163.08024691358023, 162.86155202821868, 162.69753086419752, 162.55114638447972, 162.43298059964727, 162.4585537918871, 163.41622574955906, 162.4779541446208, 162.52292768959435, 162.52116402116403, 163.07936507936506, 163.04928989139515, 162.5599647266314, 163.24652777777777, 163.56349206349205, 163.69841269841268, 163.73809523809524, 163.26388888888889, 163.22663139329805, 163.19929453262785, 163.15343915343914, 162.79947916666666, 163.14991181657848, 163.173721340388, 163.1543209876543, 163.42768959435625, 163.25837742504407, 162.86290322580646, 163.0420168067227, 162.73456790123456, 163.37068160597573, 163.9206349206349, 163.57703081232495, 163.01234567901233, 162.82980599647266, 162.66843033509699, 162.39583333333331, 162.15017361111111, 162.1015625, 162.09548611111111, 162.12760416666666, 162.22743055555554, 162.23958333333331, 162.58024691358023, 162.57936507936506, 162.69664902998235, 163.36675020885545, 163.00352733686066, 163.02028218694883, 163.91622574955906, 162.82451499118164, 162.70811287477954, 162.57407407407408, 162.49029982363314, 162.37566137566137, 162.44091710758377, 162.4021164021164, 162.5978835978836, 162.96171802054155, 162.61199294532628, 162.68342151675483, 162.7336860670194, 162.8015873015873, 162.9241622574956, 163.0705467372134, 163.12698412698413, 162.8721340388007, 162.64726631393296, 162.57319223985888, 162.4479717813051, 162.26014109347443, 161.94618055555554, 161.95920138888889, 162.42768959435625, 163.0425347222222, 162.22486772486772, 162.29188712522046, 162.46031746031744, 162.56966490299823, 163.60229276895942, 162.67989417989418, 162.84567901234567, 162.68783068783068, 162.3747795414462, 162.4100529100529, 161.9409722222222, 162.22574955908289, 162.2821869488536, 163.33421516754848, 162.26719576719574, 162.32716049382717, 162.84873949579833, 162.40917107583775, 163.48941798941797, 162.57319223985888, 162.68871252204585, 162.7336860670194, 162.77248677248676, 162.65520282186947, 162.51146384479716, 162.2612847222222, 162.43915343915344, 162.34920634920633, 162.31216931216932, 162.34656084656083, 162.48765432098764, 162.4885361552028, 162.45767195767195, 162.52469135802468, 162.57936507936506, 163.14752567693745, 162.84656084656083, 162.90299823633157, 163.00176366843033, 162.77513227513228, 162.6463844797178, 162.6278659611993, 162.56261022927688, 162.49029982363314, 162.55820105820104, 162.51675485008818, 162.59964726631392, 162.81128747795412, 162.75925925925924, 162.94444444444443, 162.640625, 163.07671957671957, 163.24338624338623, 162.94010416666666, 163.2954144620811, 162.75434027777777, 161.64322916666666, 163.03968253968253, 161.81617647058823, 162.7636684303351, 162.64462081128747, 162.8447971781305, 162.50520833333331, 162.625, 162.21942110177406, 162.4733893557423, 162.74392361111111, 162.33639705882354, 162.89930555555554, 162.94270833333331, 162.81944444444443, 162.59635416666666, 162.46961805555554, 162.50868055555554, 162.38368055555554, 162.72927689594354, 162.48350694444443, 162.4878472222222, 162.59982638888889, 162.578125, 162.88359788359787, 162.5703125, 162.71788194444443, 162.79774305555554, 162.78038194444443, 163.77256944444443, 162.80729166666666, 163.51475694444443, 163.36197916666666, 163.23524305555554, 163.13454861111111, 163.2768959435626, 162.95920138888889, 163.13107638888889, 163.38712522045856, 163.07638888888889, 163.09982638888889, 163.171875, 163.20399305555554, 164.20486111111111, 164.24913194444443, 164.2378472222222, 164.46296296296296, 164.95138888888889, 165.01675485008818, 164.7874779541446, 164.7141544117647, 165.15625, 165.48236331569663, 165.484126984127, 165.40652557319223, 165.96171802054155, 165.93183940242764, 166.2910052910053, 166.31216931216932, 165.6985294117647, 166.12605042016807, 165.95863970588235, 165.9375, 165.3203125, 165.21006944444443, 165.18576388888889, 164.94491129785249, 164.49559082892415, 164.4585537918871, 164.7063492063492, 164.42621527777777, 164.82716049382717, 164.79276895943562, 164.80075901328274, 164.64145658263305, 164.01302083333331, 164.37830687830686, 164.3515625, 164.62962962962962, 164.55908289241623, 164.3694885361552, 164.2574955908289, 164.23015873015873, 163.53968253968256, 163.69444444444443, 163.68836805555554, 163.765625, 163.80295138888889, 163.80381944444443, 163.76475694444443, 163.92708333333331, 163.56617647058823, 163.84593837535016, 164.24131944444443, 164.13454861111111, 164.28038194444443, 163.73345588235293, 163.28835978835977, 163.81770833333331, 164.0978835978836, 163.7925347222222, 163.8774250440917, 163.87654320987653, 163.89858906525572, 163.9153439153439, 164.12081128747795, 164.02469135802468, 164.21075837742504, 164.19929453262785, 164.5185185185185, 164.80913978494624]
[139.90625, 140.54384328358208, 140.56155303030303, 140.625, 140.75189393939394, 140.7412935323383, 140.67537313432837, 140.7094527363184, 140.7304104477612, 140.59701492537314, 140.58861940298507, 140.6969696969697, 140.18283582089552, 140.18097014925374, 140.14832089552237, 140.0792910447761, 140.11007462686567, 140.16511194029852, 140.3001893939394, 140.26559714795007, 140.27935606060606, 140.3068181818182, 140.06809701492537, 140.29924242424244, 140.15298507462686, 140.267723880597, 140.24440298507463, 140.47253787878788, 140.45265151515153, 140.62310606060606, 140.65530303030303, 140.79144385026737, 140.7620719929763, 140.5013169446883, 140.2379280070237, 140.31716417910448, 140.02809482001757, 139.86567164179104, 139.92164179104478, 139.99067164179104, 140.09280303030303, 139.9223484848485, 140.16856060606062, 140.125, 140.06436567164178, 140.15151515151516, 140.14488636363637, 140.14204545454547, 140.12594696969697, 139.955223880597, 140.00559701492537, 140.00839552238807, 140.03544776119404, 140.22348484848484, 140.17140151515153, 139.96969696969697, 139.71361940298507, 139.64772727272728, 139.74242424242422, 139.55776515151516, 139.6916221033868, 139.30037313432837, 139.27611940298507, 139.25, 139.37225636523266, 139.46828358208955, 139.44216417910448, 139.44682835820896, 139.38432835820896, 139.7215909090909, 139.7717803030303, 139.729055258467, 139.65320456540826, 139.8698752228164, 139.84421641791045, 139.09141791044775, 138.99253731343282, 139.04850746268656, 139.09701492537314, 139.18190298507463, 139.15205223880596, 139.15671641791045, 139.2035984848485, 139.1455223880597, 139.13059701492537, 139.13899253731344, 139.3125, 139.40205223880596, 139.37686567164178, 139.49160447761193, 139.544776119403, 139.6445895522388, 139.63526119402985, 139.44402985074626, 139.15018656716418, 138.9972014925373, 138.8955223880597, 138.94216417910448, 139.00466417910448, 138.9589552238806, 138.95988805970148, 138.88152985074626, 138.9365671641791, 138.9132462686567, 138.86287313432837, 138.98600746268656, 139.09235074626866, 139.15578358208955, 139.23973880597015, 139.27238805970148, 139.37779850746267, 139.4757462686567, 139.6883230904302, 139.43371378402108, 139.2695895522388, 139.2519754170325, 139.18964003511852, 139.16856892010534, 138.875, 139.2042910447761, 139.19309701492537, 139.18563432835822, 139.23414179104478, 139.16138059701493, 139.15018656716418, 139.27705223880596, 139.34141791044775, 139.34608208955223, 139.53264925373134, 139.6240671641791, 139.73414179104478, 139.79384328358208, 139.77705223880596, 139.6455223880597, 139.52985074626866, 139.47201492537314, 139.40485074626866, 139.38712686567163, 139.56436567164178, 139.62313432835822, 139.58768656716418, 139.62313432835822, 139.6884328358209, 139.5830223880597, 139.62313432835822, 139.69029850746267, 139.92992424242425, 139.89583333333334, 139.65391791044775, 139.9794776119403, 140.05130597014926, 139.86287313432837, 139.62966417910448, 139.67251975417034, 139.38619402985074, 139.32835820895522, 139.50466417910448, 139.48507462686567, 139.48973880597015, 139.38992537313433, 139.7717803030303, 139.48787313432837, 139.9412313432836, 139.9832089552239, 140.04944029850745, 140.00438981562775, 140.08779631255487, 140.14398595259, 139.94128787878788, 139.87971905179984, 139.892723880597, 139.8181818181818, 140.03503787878788, 139.61245674740485, 139.77348551360842, 139.77348551360842, 139.99533582089552, 139.69896193771626, 139.54595588235293, 139.97014925373134, 140.05882352941177, 140.05004389815628, 140.12906057945565, 140.21861281826165, 140.33625987708515, 140.29938542581212, 140.10886742756804, 139.94644424934154, 140.0205223880597, 139.82967515364354, 140.15814393939394, 139.86742756804213, 139.9675153643547, 139.82555970149252, 139.83861940298507, 140.04214223002634, 140.04038630377525, 140.0702370500439, 140.23178226514486, 140.2490671641791, 140.31809701492537, 140.46361940298507, 140.3854258121159, 140.3992537313433, 140.19051799824408, 140.38591800356505, 140.12203687445128, 140.12906057945565, 140.28621597892888, 140.32835820895522, 140.14738805970148, 140.33801580333625, 140.2054433713784, 140.56628787878788, 140.49160447761193, 140.5830223880597, 140.6417910447761, 140.43195785777, 140.58955223880596, 140.53467954345916, 140.70988805970148, 140.55130597014926, 140.39738805970148, 140.55690298507463, 140.50746268656715, 140.45242537313433, 140.50746268656715, 140.5284090909091, 140.4589552238806, 140.6035447761194, 140.63339552238807, 140.46921641791045, 140.66511194029852, 140.44776119402985, 140.34981343283582, 140.11287313432837, 140.2070895522388, 140.21641791044775, 140.35634328358208, 140.36007462686567, 140.2705223880597, 140.21268656716418, 140.3507462686567, 140.34794776119404, 140.31809701492537, 140.45988805970148, 140.4832089552239, 140.4990671641791, 140.6222014925373, 140.61194029850745, 140.37686567164178, 140.22761194029852, 140.0110294117647, 139.9108455882353, 139.94589552238807, 139.96548507462686, 139.9580223880597, 139.92444029850745, 139.83582089552237, 139.62316176470588, 139.73134328358208, 139.8125, 139.7509328358209, 139.8902546093064, 140.0374331550802, 139.64273356401384, 139.87006145741879, 139.66608996539793, 139.69896193771626, 139.70412642669007, 139.4793678665496, 139.40122914837576, 139.24758560140475, 139.34421641791045, 139.13257243195787, 139.1729587357331, 138.9325259515571, 138.81433823529412, 138.91608996539793, 139.09482001755927, 139.0359964881475, 138.93685121107268, 139.15539947322213, 138.94636678200692, 139.20983318700615, 139.39332748024583, 139.24172794117646, 139.05055147058823, 138.80882352941177, 138.46507352941177, 138.50692041522493, 138.7058823529412, 138.62686567164178, 138.5792910447761, 138.73134328358208, 138.69309701492537, 138.67537313432837, 138.75839552238807, 138.7742537313433, 138.5441176470588, 138.80536332179932, 138.88762071992977, 138.79384328358208, 138.98414179104478, 139.04828797190518, 139.2844600526778, 139.25724319578578, 138.9766435986159, 138.87316176470588, 138.8235294117647, 138.7304104477612, 138.68936567164178, 138.7058823529412, 138.7155399473222, 138.71202809482003, 138.65320456540826, 138.7172958735733, 138.8125, 138.79319852941177, 138.830223880597, 138.9766791044776, 139.00466417910448, 139.17164179104478, 139.2332089552239, 139.22388059701493, 139.32742537313433, 139.4179104477612, 139.19393382352942, 139.31063432835822, 139.1222014925373, 138.87686567164178, 138.86678200692043, 138.69589552238807, 138.6436567164179, 138.77332089552237, 138.77611940298507, 138.78264925373134, 138.80410447761193, 138.74440298507463, 138.91220368744513, 138.6436567164179, 139.0186567164179, 139.01119402985074, 138.99160447761193, 138.90951492537314, 139.01399253731344, 138.97388059701493, 139.01470588235293, 139.0284926470588, 139.2742537313433, 139.15808823529412, 139.06985294117646, 138.9191176470588, 138.89705882352942, 138.77205882352942, 138.87313432835822, 139.03544776119404, 139.03638059701493, 139.0825285338016, 138.99648814749781, 139.2490671641791, 139.1287313432836, 139.1404741000878, 139.32555970149252, 139.36347673397717, 139.54011194029852, 139.47848990342405, 139.43936567164178, 139.55410447761193, 139.65018656716418, 139.83845478489903, 139.5625, 139.455223880597, 139.47146619841968, 139.21268656716418, 139.17910447761193, 139.0358455882353, 139.05422794117646, 139.12408088235293, 139.11856617647058, 139.11305147058823, 139.0735294117647, 139.08180147058823, 139.38432835820896, 139.16819852941177, 139.21139705882354, 139.30330882352942, 139.4347426470588, 139.38878676470588, 139.44485294117646, 139.52798507462686, 139.29384328358208, 139.13805970149252, 139.21861281826165, 139.04664179104478, 139.03078358208955, 139.12686567164178, 139.06063432835822, 139.05503731343282, 138.92723880597015, 138.82649253731344, 138.94776119402985, 139.2089552238806, 139.12906057945565, 139.21158911325725, 139.24253731343282, 139.4363476733977, 139.25652985074626, 139.3339552238806, 139.15205223880596, 138.85018382352942, 138.81066176470588, 139.01492537313433, 139.14832089552237, 139.3740671641791, 139.33861940298507, 139.58582089552237, 139.74440298507463, 139.98134328358208, 139.87796312554872, 139.76212686567163, 139.99648814749781, 139.7076124567474, 140.25466417910448, 140.27332089552237, 140.0702370500439, 139.9420544337138, 139.830223880597, 139.65764925373134, 139.7686567164179, 139.69869402985074, 139.8115671641791, 140.00932835820896, 139.89640035118526, 139.65111940298507, 139.8955223880597, 139.73600746268656, 140.0, 139.857276119403, 140.12379280070238, 140.27304653204564, 140.171202809482, 140.09602076124568, 139.810553633218, 139.80622837370242, 139.705223880597, 139.56063432835822, 139.6679104477612, 139.84235074626866, 139.6837686567164, 139.78544776119404, 139.74440298507463, 139.7683823529412, 139.7919776119403, 140.03078358208955, 140.09608208955223, 139.90485074626866, 140.22108208955223, 140.2914837576822, 140.16681299385425, 139.95785776997366, 140.07742537313433, 140.02332089552237, 139.88992537313433, 140.1044776119403, 139.93942054433714, 140.0324846356453, 139.91659350307287, 140.17257462686567, 139.98419666374014, 140.2929104477612, 140.2070895522388, 140.32742537313433, 140.45988805970148, 140.43107989464443, 140.57462686567163, 140.5100965759438, 140.24356617647058, 140.25466417910448, 140.25932835820896, 140.09218612818262, 140.29938542581212, 140.32923617208078, 140.3784021071115, 140.40825285338016, 140.43195785777, 140.42844600526777, 140.5634328358209, 140.59608208955223, 140.71735074626866, 140.63740122914837, 140.72958735733098, 140.73836698858648, 140.61937716262977, 140.47146619841968, 140.42830882352942, 140.54850746268656, 140.29871323529412, 140.4160447761194, 140.54850746268656, 140.54433713784022, 140.4179104477612, 140.49078138718173, 140.56716417910448, 140.64091308165058, 140.79944029850745, 140.71641791044777, 140.8759328358209, 140.9207089552239, 140.87093942054435, 140.9766791044776, 140.9207089552239, 140.65391791044775, 140.57276119402985, 140.42630597014926, 140.41511194029852, 140.36940298507463, 140.49440298507463, 140.4589552238806, 140.48694029850745, 140.41511194029852, 140.32089552238807, 140.3554104477612, 140.32089552238807, 140.3712686567164, 140.3917910447761, 140.43190298507463, 140.3945895522388, 140.4580223880597, 140.47761194029852, 140.41527655838456, 140.27129060579455, 140.0493079584775, 140.02107111501317, 139.9130816505707, 140.1212686567164, 139.94293239683932, 139.92387543252596, 139.94995610184372, 139.87006145741879, 139.77076124567475, 139.71966911764704, 140.01124567474048, 140.02985074626866, 139.99653979238755, 140.25285338015803, 140.3554104477612, 140.1837686567164, 140.23414179104478, 140.1492537313433, 140.16856892010534, 140.0634328358209, 139.72344161545215, 139.55968858131487, 139.4749134948097, 139.5768217734855, 139.33363970588235, 139.25827205882354, 139.28768382352942, 139.2882462686567, 139.30597014925374, 139.28114186851212, 139.43020193151887, 139.3589965397924, 139.47481343283582, 139.51399253731344, 139.6016791044776, 139.6912313432836, 139.69402985074626, 139.57555970149252, 139.28492647058823, 139.015625, 139.00951557093427, 138.9688581314879, 138.86287313432837, 138.79384328358208, 138.7957089552239, 138.83861940298507, 138.7061567164179, 138.767723880597, 138.77238805970148, 138.84421641791045, 138.7882462686567, 138.8483455882353, 138.88805970149252, 139.02611940298507, 139.03171641791045, 139.09141791044775, 139.27595155709344, 139.29779411764704, 139.32612456747404, 139.21799307958477, 138.9749134948097, 139.02458296751536, 138.56809701492537, 138.6583044982699, 138.5830223880597, 138.57835820895522, 138.61194029850745, 138.47702205882354, 138.67301038062286, 138.6829044117647, 138.9757462686567, 138.7941176470588, 139.06063432835822, 139.0792910447761, 138.92830882352942, 139.31716417910448, 139.36847014925374, 139.36940298507463, 139.4785447761194, 139.58861940298507, 139.58647936786656, 139.76585820895522, 139.62966417910448, 139.21966911764704, 139.00643382352942, 139.07555970149252, 138.91636029411765, 138.84515570934258, 138.9083044982699, 139.03460207612457, 138.8639705882353, 139.18349429323968, 139.12554872695347, 139.1510096575944, 139.38899253731344, 139.42630597014926, 139.25987708516243, 139.57182835820896, 139.72014925373134, 139.7266791044776, 139.79367866549606, 139.91659350307287, 140.06760316066726, 139.95258999122038, 139.87006145741879, 139.7225636523266, 139.61018437225636, 139.30017301038063, 139.45863970588235, 139.33217993079586, 139.4347014925373, 139.67778753292362, 139.66461808604038, 139.6321334503951, 139.65847234416154, 139.67515364354696, 139.81996268656715, 140.01026119402985, 140.02891791044775, 140.1632462686567, 140.00438981562775, 140.20149253731344, 140.32369402985074, 140.26026119402985, 140.11287313432837, 140.00746268656715, 139.7695895522388, 139.67817164179104, 139.8162313432836, 139.7472014925373, 139.8544776119403, 139.84888059701493, 139.85634328358208, 139.78078358208955, 139.8327205882353, 139.7910447761194, 139.7628676470588, 139.7454044117647, 139.82835820895522, 139.9384328358209, 140.06996268656715, 140.12313432835822, 140.17537313432837, 140.19869402985074, 139.99160447761193, 139.88339552238807, 139.78451492537314, 139.68190298507463, 139.73694029850745, 139.73880597014926, 139.78358208955223, 139.58363970588235, 139.69309701492537, 139.6865671641791, 139.6884328358209, 139.6455223880597, 139.71082089552237, 139.97366110623355, 139.55698529411765, 139.81487889273356, 139.84141791044775, 139.8589965397924, 139.56809701492537, 139.49813432835822, 139.24632352941177, 139.23345588235293, 139.30783582089552, 139.38339552238807, 139.32742537313433, 139.3955223880597, 139.015625, 139.3226643598616, 139.41527655838456, 139.27573529411765, 139.32996323529412, 139.3566176470588, 139.46875, 139.53492647058823, 139.49448529411765, 139.39613970588235, 139.26378676470588, 139.13235294117646, 139.0772607550483, 138.9375, 139.0, 139.02297794117646, 138.9108455882353, 138.9090073529412, 138.94669117647058, 139.02573529411765, 139.16511194029852, 139.21139705882354, 139.17555147058823, 139.57555970149252, 139.37132352941177, 139.453125, 139.47201492537314, 139.357276119403, 139.2080223880597, 139.267723880597, 139.18283582089552, 139.22108208955223, 139.26194852941177, 139.28264925373134, 139.1590073529412, 139.30410447761193, 139.31716417910448, 139.0661231884058, 139.44309701492537, 139.580223880597, 139.50919117647058, 139.82462686567163, 139.69290657439447, 139.59515570934258, 139.56487889273356, 139.29779411764704, 139.33955223880596, 139.33363970588235, 139.46875, 139.45955882352942, 139.59742647058823, 139.63143382352942, 139.71455223880596, 139.66452205882354, 139.88059701492537, 139.90764925373134, 139.92630597014926, 140.02705223880596, 140.08582089552237, 140.07742537313433, 139.9757462686567, 139.95149253731344, 139.9141791044776, 139.8507462686567, 139.68106617647058, 139.80055147058823, 139.7863321799308, 139.82439446366783, 139.95055970149252, 140.044776119403, 140.25548726953468, 140.06902985074626, 140.19309701492537, 140.2266791044776, 140.3992537313433, 140.55503731343282, 140.52985074626866, 140.28216911764704, 140.1378676470588, 140.10386029411765, 140.0808823529412, 140.15205223880596, 140.080223880597, 140.05330882352942, 140.09794776119404, 140.09888059701493, 140.1837686567164, 140.30553116769096, 140.28287197231833, 140.4214223002634, 140.4191176470588, 140.58363970588235, 140.7042910447761, 140.54170324846356, 140.4141791044776, 140.36347673397717, 140.36194029850745, 140.30783582089552, 140.18936567164178, 140.1222426470588, 140.13970588235293, 140.10569852941177, 140.63805970149252, 140.6669776119403, 140.49172794117646, 140.7705223880597, 140.78489903424057, 140.9832089552239, 141.06436567164178, 141.20335820895522, 141.24621212121212, 141.15719696969697, 141.1032196969697, 140.8507462686567, 141.03314393939394, 140.85650623885917, 140.93048128342244, 140.9964349376114, 140.78264925373134, 140.74253731343282, 140.91922739244953, 140.8759328358209, 140.8115671641791, 140.88432835820896, 140.90018656716418, 140.94589552238807, 141.1246707638279, 140.97453906935908, 140.91044776119404, 140.71378402107112, 140.6057945566286, 140.6233538191396, 140.6883230904302, 140.68393327480246, 140.67778753292362, 140.62247585601403, 140.75592625109746, 140.63152985074626, 140.67817164179104, 140.65051903114187, 140.7266435986159, 140.68425605536333, 140.82791922739244, 140.85864793678667, 140.91138059701493, 140.64430147058823, 140.44669117647058, 140.30330882352942, 140.03216911764704, 140.12132352941177, 140.0465320456541, 139.9273356401384, 139.98010380622839, 139.96020761245674, 140.04503676470588, 139.984375, 139.91819852941177, 139.92371323529412, 139.82904411764704, 139.89889705882354, 139.9871323529412, 139.80253623188406, 139.73913043478262, 139.8391544117647, 140.2257785467128, 140.26384083044982, 139.91003460207614, 139.72231833910035, 139.53033088235293, 139.19031141868513, 139.0432525951557, 138.91452205882354, 138.73615916955018, 138.78892733564015, 138.78373702422147, 138.6634948096886, 138.71366782006922, 138.72837370242215, 138.71539792387543, 138.8157439446367, 138.82179930795849, 138.8097426470588, 138.88694852941177, 139.05055147058823, 139.15298507462686, 139.3115671641791, 139.35634328358208, 139.21783088235293, 139.23069852941177, 139.20220588235293, 138.96231617647058, 138.70863970588235, 138.63992537313433, 138.56809701492537, 138.17906574394465, 138.37225636523266, 138.459174714662, 138.32369402985074, 138.17993079584775, 138.2019315188762, 138.29060579455663, 138.34416154521512, 138.47108208955223, 138.4016544117647, 138.55422794117646, 138.57077205882354, 138.67371323529412, 138.7316176470588, 138.8391544117647, 139.0615671641791, 139.12686567164178, 139.23973880597015, 139.18097014925374, 138.74080882352942, 138.49816176470588, 138.32628676470588, 138.24448529411765, 138.1360294117647, 138.34981343283582, 138.392723880597, 138.4804104477612, 138.3639705882353, 138.2929104477612, 138.36488970588235, 138.36580882352942, 138.53125, 138.52481617647058, 138.5753676470588, 138.7233455882353, 138.72242647058823, 138.75827205882354, 138.81801470588235, 138.94485294117646, 139.10018382352942, 139.06617647058823, 138.93566176470588, 138.70863970588235, 138.55698529411765, 138.35110294117646, 138.42371323529412, 138.4375, 138.54044117647058, 138.55330882352942, 138.53216911764704, 138.47702205882354, 138.54319852941177, 138.48805147058823, 138.50735294117646, 138.66360294117646, 138.7858455882353, 138.80514705882354, 138.98253676470588, 139.1884328358209, 139.30783582089552, 139.25466417910448, 139.25559701492537, 139.08582089552237, 138.8964552238806, 139.0051903114187, 138.84235074626866, 138.50827205882354, 138.67922794117646, 138.7545955882353, 139.02238805970148, 139.00746268656715, 139.05037313432837, 139.09421641791045, 138.80514705882354, 138.99448529411765, 139.35469710272167, 138.97610294117646, 139.31529850746267, 139.22058823529412, 139.3014705882353, 139.51378676470588, 139.61764705882354, 139.48787313432837, 139.30503731343282, 139.23973880597015, 139.21828358208955, 139.10845588235293, 139.13694852941177, 139.32649253731344, 139.27332089552237, 139.2389705882353, 139.18198529411765, 139.37975778546712, 139.2545955882353, 139.4524221453287, 139.53892733564015, 139.469723183391, 139.44761029411765, 139.67387543252596, 139.76643598615917, 139.8365051903114, 139.70847750865053, 139.59964881474977, 139.45220588235293, 139.40441176470588, 139.48621323529412, 139.42128027681662, 139.50692041522493, 139.5060553633218, 139.40533088235293, 139.5173010380623, 139.71290605794556, 139.64446366782008, 139.7058823529412, 139.76733977172958, 139.69117647058823, 140.04038630377525, 139.88062283737025, 140.01557093425606, 139.94732221246707, 139.52768166089965, 139.4455017301038, 139.55330882352942, 139.44982698961937, 139.64797794117646, 139.5, 139.5250865051903, 139.53979238754326, 139.54411764705884, 139.7297794117647, 139.63235294117646, 139.62629757785467, 139.7993079584775, 139.85207612456747, 140.0429104477612, 140.04828797190518, 139.94982698961937, 139.7750865051903, 139.6280276816609, 139.58180147058823, 139.57649253731344, 139.453125, 139.41452205882354, 139.47242647058823, 139.5513608428446, 139.40625, 139.50367647058823, 139.3547794117647, 139.29503676470588, 139.33180147058823, 139.23731884057972, 139.4558823529412, 139.45220588235293, 139.5965073529412, 139.484375, 139.390625, 139.16819852941177, 139.07169117647058, 139.02941176470588, 138.93933823529412, 139.0983455882353, 139.02757352941177, 139.03492647058823, 139.4108455882353, 138.98269896193773, 139.09558823529412, 139.00778546712803, 139.0769927536232, 139.31341911764704, 139.35294117647058, 139.34742647058823, 139.3777573529412, 139.2941176470588, 139.09742647058823, 138.8933823529412, 138.88694852941177, 138.8704044117647, 138.890625, 139.01930147058823, 139.01746323529412, 138.99632352941177, 139.10753676470588, 139.08180147058823, 139.05882352941177, 139.14889705882354, 139.20496323529412, 139.15579710144928, 139.17830882352942, 139.21014492753622, 139.3860294117647, 138.92028985507247, 138.86580882352942, 138.78676470588235, 138.76011029411765, 138.7215073529412, 138.83363970588235, 138.92279411764704, 138.8233695652174, 139.10202205882354, 138.92279411764704, 138.9503676470588, 138.98988970588235, 138.83876811594203, 138.97610294117646, 139.0570652173913, 139.17210144927537, 139.19301470588235, 138.91576086956522, 138.85018382352942, 138.6485507246377, 138.76194852941177, 138.75183823529412, 138.82169117647058, 138.92371323529412, 138.85569852941177, 138.8014705882353, 138.80422794117646, 138.66636029411765, 138.6452205882353, 138.77573529411765, 138.97923875432525, 138.84742647058823, 138.9485294117647, 139.0051903114187, 138.85553633217992, 138.578125, 138.48621323529412, 138.3409926470588, 138.45955882352942, 138.76011029411765, 138.71231617647058, 138.7919776119403, 138.66544117647058, 138.59191176470588, 138.80968858131487, 138.60753676470588, 138.84948096885813, 138.80055147058823, 138.38143382352942, 138.59742647058823, 138.73988970588235, 138.8483455882353, 138.75735294117646, 138.85202205882354, 138.921875, 138.94485294117646, 138.91636029411765, 138.9610507246377, 138.96829710144928, 138.72826086956522, 138.7003676470588, 138.60202205882354, 138.62316176470588, 138.7922794117647, 138.67560553633217, 138.73356401384083, 138.76384083044982, 138.5441176470588, 138.73615916955018, 138.72837370242215, 138.8157439446367, 138.96323529411765, 139.11580882352942, 139.0670955882353, 138.82525951557093, 138.72208013640238, 138.71966911764704, 138.5250865051903, 138.50643382352942, 138.56341911764704, 138.63878676470588, 138.58131487889273, 138.64705882352942, 138.6295955882353, 138.62867647058823, 138.56433823529412, 138.6590073529412, 138.65073529411765, 138.7472426470588, 138.7610294117647, 138.87683823529412, 138.78033088235293, 138.64246323529412, 138.53768382352942, 138.6047794117647, 138.58363970588235, 138.61488970588235, 138.6590073529412, 138.59782608695653, 138.68566176470588, 138.76470588235293, 138.76930147058823, 138.83455882352942, 138.82996323529412, 138.97242647058823, 139.11948529411765, 139.01011029411765, 139.08363970588235, 138.86503623188406, 138.63970588235293, 138.65533088235293, 138.70128676470588, 138.6608455882353, 138.77205882352942, 138.7316176470588, 138.66032608695653, 138.88235294117646, 139.02611940298507, 138.77573529411765, 138.77481617647058, 138.73069852941177, 138.87316176470588, 138.9797794117647, 138.95863970588235, 138.91360294117646, 138.72886029411765, 138.66268382352942, 138.54319852941177, 138.38419117647058, 138.4191176470588, 138.60202205882354, 138.57904411764704, 138.51746323529412, 138.5, 138.3913043478261, 138.4329044117647, 138.50735294117646, 138.62132352941177, 138.7297794117647, 138.87867647058823, 138.86580882352942, 138.89705882352942, 138.63694852941177, 138.44393382352942, 138.33180147058823, 138.23621323529412, 138.21507352941177, 138.33547794117646, 138.31159420289856, 138.53033088235293, 138.14764492753622, 138.46323529411765, 138.44761029411765, 138.47518382352942, 138.53308823529412, 138.60018382352942, 138.76194852941177, 138.79319852941177, 138.94577205882354, 138.92830882352942, 138.7215073529412, 138.57444852941177, 138.44301470588235, 138.57649253731344, 138.35294117647058, 138.51378676470588, 138.6121323529412, 138.48988970588235, 138.54044117647058, 138.6378676470588, 138.51539855072463, 138.80698529411765, 138.7858455882353, 138.87408088235293, 138.93198529411765, 138.9485294117647, 139.07169117647058, 139.21139705882354, 139.03033088235293, 138.96875, 138.7766544117647, 138.70404411764704, 138.59283088235293, 138.6902573529412, 138.56158088235293, 138.58363970588235, 138.703125, 138.60753676470588, 138.79503676470588, 138.63134057971016, 138.75551470588235, 138.90716911764704, 138.89889705882354, 139.00919117647058, 139.0358455882353, 139.24816176470588, 139.23345588235293, 139.29319852941177, 139.11764705882354, 138.98621323529412, 138.86121323529412, 138.74448529411765, 138.640625, 138.8639705882353, 138.80698529411765, 138.8860294117647, 138.90992647058823, 138.78308823529412, 138.875, 138.85202205882354, 138.88143382352942, 138.92371323529412, 138.99264705882354, 139.1066176470588, 139.15441176470588, 139.2922794117647, 139.1985294117647, 139.03170289855072, 138.91360294117646, 138.59963768115944, 138.70220588235293, 138.74813432835822, 138.4420955882353, 138.453125, 138.55238970588235, 138.59375, 138.54503676470588, 138.5808823529412, 138.64154411764704, 138.65073529411765, 138.71875, 138.78033088235293, 138.8079044117647, 138.95404411764704, 138.8894927536232, 139.00919117647058, 139.09742647058823, 139.29136029411765, 139.12683823529412, 138.97610294117646, 138.6534926470588, 138.703125, 138.54319852941177, 138.7058823529412, 138.57077205882354, 138.69301470588235, 138.66360294117646, 138.6875, 138.59283088235293, 138.57720588235293, 138.59466911764704, 138.60018382352942, 138.6590073529412, 138.7003676470588, 138.7683823529412, 138.89797794117646, 138.94301470588235, 138.92922794117646, 138.76654411764704, 138.61856617647058, 138.44669117647058, 138.56985294117646, 138.45404411764704, 138.4871323529412, 138.49632352941177, 138.55882352941177, 138.4816176470588, 138.48069852941177, 138.37132352941177, 138.4191176470588, 138.48529411764704, 138.44485294117646, 138.3215579710145, 138.55882352941177, 138.73069852941177, 138.97794117647058, 139.01654411764704, 138.82077205882354, 138.67095588235293, 138.48988970588235, 138.40716911764704, 138.10960144927537, 138.20128676470588, 138.32996323529412, 138.3327205882353, 138.24448529411765, 138.14613970588235, 138.1813725490196, 138.53125, 138.45955882352942, 138.50183823529412, 138.63970588235293, 138.68658088235293, 138.66960784313724, 138.99908088235293, 138.63496376811594, 138.6634948096886, 138.68382352941177, 138.57720588235293, 138.39705882352942, 138.5965073529412, 138.4818339100346, 138.17934782608697, 138.65051903114187, 138.46783088235293, 138.56228373702422, 138.83955223880596, 138.4398976982097, 138.69301470588235, 138.65570934256056, 138.77113970588235, 138.79871323529412, 138.96875, 138.94301470588235, 139.04136029411765, 138.71920289855072, 138.70404411764704, 138.58363970588235, 138.3677536231884, 138.4172794117647, 138.50183823529412, 138.48529411764707, 138.51038062283737, 138.51406649616368, 138.38327205882354, 138.39430147058823, 138.40073529411765, 138.52173913043478, 138.7784926470588, 138.82444852941177, 138.69393382352942, 138.62771739130434, 138.78804347826087, 139.109375, 139.15073529411765, 139.08547794117646, 138.92555147058823, 138.72518382352942, 138.65533088235293, 138.63051470588235, 138.61488970588235, 138.560553633218, 138.35110294117646, 138.6847426470588, 138.60845588235293, 138.6847426470588, 138.45220588235293, 138.55698529411765, 138.28214285714284, 138.4538043478261, 138.4981884057971, 138.7840073529412, 138.92095588235293, 138.79891304347825, 139.00643382352942, 139.07169117647058, 138.82720588235293, 138.65992647058823, 138.60018382352942, 138.55055147058823, 138.5891544117647, 138.6047794117647, 138.37283737024222, 138.24264705882354, 138.5389492753623, 138.5183823529412, 138.40217391304347, 138.70220588235293, 138.61121323529412, 138.63677536231884, 138.79779411764704, 138.72373188405797, 139.0027573529412, 138.79891304347825, 138.83876811594203, 138.91268382352942, 138.4945652173913, 138.69485294117646, 138.52941176470588, 138.33242753623188, 138.4329044117647, 138.62683823529412, 138.28303495311167, 138.23253676470588, 138.48345588235293, 138.5340073529412, 138.4420955882353, 138.4577205882353, 138.49908088235293, 138.48988970588235, 138.56893382352942, 138.6746323529412, 138.703125, 138.67371323529412, 138.62132352941177, 138.34007352941177, 138.26011029411765, 138.11580882352942, 138.14705882352942, 138.1985294117647, 138.2922794117647, 138.32996323529412, 138.12450980392157, 138.27389705882354, 138.21047794117646, 138.13694852941177, 138.17922794117646, 138.12591911764704, 138.2077205882353, 138.25919117647058, 138.28308823529412, 138.4347426470588, 138.18933823529412, 138.125, 137.98621323529412, 137.89981617647058, 137.7784926470588, 137.85845588235293, 137.90808823529412, 138.01470588235293, 138.08547794117646, 137.99080882352942, 137.9871323529412, 137.9954044117647, 138.05330882352942, 138.09375, 138.21783088235293, 138.16819852941177, 138.27481617647058, 138.43382352941177, 138.46875, 138.48529411764704, 138.34558823529412, 138.296875, 138.0144927536232, 137.94202898550725, 137.86470588235295, 137.96557971014494, 138.21875, 138.25, 138.14154411764704, 138.20863970588235, 138.2996323529412, 138.21047794117646, 138.14981617647058, 138.2941176470588, 138.32904411764704, 138.36856617647058, 138.4485294117647, 138.43658088235293, 138.15625, 138.109375, 138.04871323529412, 138.0128676470588, 138.1452205882353, 138.14889705882354, 138.10202205882354, 138.17830882352942, 138.08639705882354, 138.12867647058823, 138.21691176470588, 138.35845588235293, 138.42003676470588, 138.2554347826087, 138.33639705882354, 138.4172794117647, 138.39154411764704, 138.29981884057972, 138.359375, 138.08731617647058, 137.94761029411765, 137.70923913043478, 137.76011029411765, 137.73007246376812, 138.04319852941177, 138.0625, 138.046875, 138.05238970588235, 137.79710144927537, 137.77173913043478, 138.09283088235293, 137.99080882352942, 138.16176470588235, 138.05253623188406, 138.28125, 138.2702205882353, 138.3465073529412, 138.1139705882353, 137.94393382352942, 137.86764705882354, 137.79044117647058, 137.68382352941177, 137.8014705882353, 137.92279411764704, 137.94577205882354, 137.91485507246378, 137.9954044117647, 137.83242753623188, 137.86231884057972, 137.95496323529412, 138.09283088235293, 138.0480072463768, 138.14492753623188, 138.33547794117646, 138.5358455882353, 138.60110294117646, 138.44746376811594, 138.5391791044776, 138.23621323529412, 138.05055147058823, 138.0202205882353, 137.98805147058823, 138.11029411764704, 138.1378676470588, 138.1378676470588, 137.91485507246378, 138.11305147058823, 137.9991349480969, 138.24632352941177, 138.24632352941177, 137.99637681159422, 138.08423913043478, 138.32077205882354, 138.34558823529412, 138.25, 138.3768115942029, 138.56433823529412, 138.39797794117646, 138.28676470588235, 138.1222426470588, 137.90533088235293, 137.94301470588235, 138.04595588235293, 138.04503676470588, 138.03492647058823, 138.01011029411765, 138.1295955882353, 138.02389705882354, 138.03768382352942, 138.10294117647058, 138.1764705882353, 138.23253676470588, 138.3125, 138.36948529411765, 138.47426470588235, 138.61488970588235, 138.5108695652174, 138.42481884057972, 138.3722426470588, 138.11029411764704, 137.73641304347825, 138.0358455882353, 138.09191176470588, 138.10845588235293, 138.00827205882354, 138.08823529411765, 137.9302536231884, 138.13419117647058, 138.24816176470588, 138.42371323529412, 138.453125, 138.60753676470588, 138.59926470588235, 138.8235294117647, 138.78713768115944, 138.39981617647058, 138.2019927536232, 138.30238970588235, 138.23988970588235, 138.3308823529412, 138.330615942029, 138.13299232736574, 138.3114186851211, 138.4641544117647, 138.4715073529412, 138.39532871972318, 138.484375, 138.59007352941177, 138.60018382352942, 138.63511029411765, 138.66360294117646, 138.66819852941177, 138.70128676470588, 138.65257352941177, 138.40716911764704, 138.32628676470588, 138.28033088235293, 138.1902573529412, 138.24448529411765, 138.09148550724638, 138.2454044117647, 138.03532608695653, 138.13327205882354, 138.1516544117647, 138.12132352941177, 138.0808823529412, 138.0983455882353, 138.1829044117647, 138.28860294117646, 138.40625, 138.40441176470588, 138.44301470588235, 138.44393382352942, 138.2766544117647, 137.9981884057971, 137.984375, 138.0183823529412, 137.84742647058823, 137.85386029411765, 137.9090073529412, 137.81617647058823, 137.85018382352942, 137.82261029411765, 137.87132352941177, 137.88694852941177, 137.96691176470588, 137.99172794117646, 138.01470588235293, 138.10294117647058, 138.1920955882353, 138.1358695652174, 138.11580882352942, 138.0340073529412, 137.97610294117646, 137.85294117647058, 137.84926470588235, 137.60597826086956, 137.71691176470588, 137.7784926470588, 137.60235507246378, 137.6503623188406, 137.70496323529412, 137.66268382352942, 137.78216911764704, 137.79595588235293, 137.99448529411765, 138.1847426470588, 138.2527573529412, 138.20220588235293, 138.31617647058823, 138.04136029411765, 137.83731617647058, 137.63419117647058, 137.50090579710144, 137.48460144927537, 137.58455882352942, 137.5769927536232, 137.6746323529412, 137.56702898550725, 137.625, 137.57789855072463, 137.6485507246377, 137.80882352941177, 137.68014705882354, 137.90073529411765, 138.03676470588235, 138.17095588235293, 138.21507352941177, 138.20128676470588, 138.078125, 137.81158088235293, 137.76654411764704, 137.6277573529412, 137.62132352941177, 137.5027573529412, 137.6875, 137.5733695652174, 137.68198529411765, 137.50634057971016, 137.70392156862744, 137.43659420289856, 137.99080882352942, 137.62125603864735, 137.6295955882353, 137.76378676470588, 137.87941176470588, 137.92830882352942, 138.17555147058823, 138.12408088235293, 138.15073529411765, 137.8892733564014, 137.89613970588235, 137.84283088235293, 137.368115942029, 137.82077205882354, 137.8253676470588, 137.8079044117647, 137.72794117647058, 137.63051470588235, 137.5951086956522, 137.82444852941177, 137.86488970588235, 138.00183823529412, 138.0652573529412, 138.13419117647058, 137.91938405797103, 138.00634057971016, 138.19301470588235, 137.9954044117647, 137.90808823529412, 137.8097426470588, 137.55072463768116, 137.70955882352942, 137.62409420289856, 137.93014705882354, 137.9329044117647, 137.85569852941177, 137.76930147058823, 137.8933823529412, 137.93841911764704, 137.9972426470588, 137.78623188405797, 137.95471014492753, 138.0163043478261, 138.23621323529412]
[183.9972426470588, 184.57958477508652, 183.83967391304347, 184.33503836317135, 184.53373702422147, 184.31713554987212, 184.31798806479114, 184.23444160272805, 183.8763853367434, 183.90484429065745, 183.7188581314879, 183.3631713554987, 183.29070758738277, 183.6583044982699, 183.41091219096333, 183.0697463768116, 183.60443307757885, 183.7766410912191, 183.21739130434784, 183.66410912190963, 183.12137681159422, 183.59079283887468, 183.48593350383632, 183.37340153452686, 182.9923273657289, 182.75532821824382, 182.82785467128028, 182.77768166089965, 182.780276816609, 182.37510656436487, 182.7024221453287, 182.7309688581315, 182.7551903114187, 182.63840830449828, 182.7067474048443, 182.5311167945439, 181.94021739130434, 182.51065643648764, 182.4066496163683, 182.06564364876385, 181.9778346121057, 181.50452898550725, 181.46648550724638, 181.47735507246378, 181.4927536231884, 180.88840830449828, 181.99172794117646, 182.0670955882353, 181.1280276816609, 181.12456747404846, 182.31801470588235, 182.125, 181.62456747404846, 181.22150735294116, 181.67263427109975, 181.27941176470588, 180.86322463768116, 180.93933823529412, 180.88970588235293, 181.11305147058823, 181.234375, 181.5018115942029, 180.7450980392157, 181.14532871972318, 181.35553633217992, 181.50865051903114, 181.5657439446367, 181.51470588235296, 181.6522491349481, 182.87683823529412, 181.52855924978687, 181.76124567474048, 182.63419117647058, 182.45863970588235, 182.16452205882354, 182.0753676470588, 180.9515570934256, 182.09283088235293, 182.12591911764704, 182.27757352941177, 181.48529411764707, 181.53892733564015, 181.5181660899654, 182.25, 181.2549019607843, 182.43115942028984, 181.63938618925832, 182.75275735294116, 182.51194852941177, 182.27941176470588, 182.1204044117647, 181.77083333333334, 181.86865942028984, 181.9139492753623, 182.24632352941177, 182.21047794117646, 182.03033088235293, 181.96323529411765, 182.01011029411765, 182.16452205882354, 182.42371323529412, 182.1856884057971, 182.21739130434784, 181.96648550724638, 181.921875, 181.7316176470588, 181.62775735294116, 181.71691176470588, 181.90900735294116, 182.08180147058823, 182.2077205882353, 182.25367647058823, 182.26838235294116, 182.08152173913044, 182.15126811594203, 182.35326086956522, 182.58695652173913, 182.6730072463768, 182.72282608695653, 182.47554347826087, 182.40942028985506, 182.6875, 182.5891544117647, 182.46047794117646, 182.43658088235293, 182.50275735294116, 183.3748902546093, 182.12952898550725, 182.31341911764704, 182.80536332179932, 182.6764705882353, 183.71966911764704, 183.30253623188406, 183.21920289855072, 183.4889705882353, 183.3639705882353, 182.8659420289855, 182.74184782608697, 182.6485507246377, 182.80253623188406, 182.0392156862745, 181.6231884057971, 181.89221014492753, 181.96648550724638, 181.91847826086956, 183.6452205882353, 183.61580882352942, 183.49080882352942, 183.4016544117647, 183.31158088235293, 182.7980072463768, 182.63970588235293, 182.1576086956522, 182.10416666666666, 182.25091911764704, 182.06801470588235, 182.2608695652174, 182.29667519181586, 182.47058823529412, 183.22192028985506, 181.643115942029, 182.50173010380624, 183.41757246376812, 183.30978260869566, 183.42934782608697, 183.51358695652175, 183.45742753623188, 183.19021739130434, 183.15217391304347, 183.33088235294116, 183.0326086956522, 183.05797101449275, 183.07246376811594, 181.95993179880648, 182.24381926683716, 183.1730072463768, 183.16123188405797, 182.98822463768116, 182.92028985507247, 182.98097826086956, 183.0552536231884, 183.11322463768116, 183.13677536231884, 183.0715579710145, 182.75271739130434, 182.76358695652175, 182.66576086956522, 182.90217391304347, 183.0235507246377, 183.20018115942028, 183.30615942028984, 183.4211956521739, 183.67210144927537, 182.7391304347826, 183.1332179930796, 183.26470588235296, 182.49637681159422, 182.7518115942029, 182.89492753623188, 182.60688405797103, 182.97442455242967, 182.57246376811594, 182.66757246376812, 182.73097826086956, 183.27757352941177, 183.3391544117647, 183.4701086956522, 183.43478260869566, 184.0441176470588, 183.9972426470588, 184.15716911764704, 184.13419117647058, 183.2318339100346, 183.94117647058823, 183.75919117647058, 183.34057971014494, 183.21648550724638, 183.26721014492753, 183.32246376811594, 182.29070758738277, 183.5018115942029, 183.39673913043478, 183.5909926470588, 183.3215579710145, 183.51194852941177, 183.24637681159422, 183.49356617647058, 183.38235294117646, 182.7980072463768, 182.94393382352942, 182.63511029411765, 182.7450980392157, 182.20742753623188, 182.3786231884058, 182.47916666666666, 182.47101449275362, 182.40851449275362, 182.44384057971016, 182.36684782608697, 182.81756180733163, 182.87723785166241, 182.75618073316284, 182.73145780051152, 183.4909420289855, 183.18840579710144, 182.0843989769821, 181.94884910485933, 182.8125, 183.0235507246377, 183.16757246376812, 183.18115942028984, 183.25815217391303, 183.17663043478262, 183.24637681159422, 183.2355072463768, 183.08242753623188, 183.12771739130434, 183.09692028985506, 182.98460144927537, 182.830615942029, 182.76992753623188, 181.84484228473997, 183.15073529411765, 181.923273657289, 182.00085251491902, 181.57789855072463, 181.6358695652174, 182.1159420289855, 182.2173913043478, 182.0699062233589, 182.22080136402386, 182.1832907075874, 182.21142369991475, 182.2992327365729, 181.79981884057972, 182.38581314878894, 183.38878676470588, 182.33737024221455, 181.9454390451833, 181.90808823529412, 181.71376811594203, 181.84329710144928, 182.22702205882354, 182.26746323529412, 181.80434782608697, 182.14236999147485, 182.05882352941177, 182.97735507246378, 182.02557544757033, 182.92934782608697, 183.0018115942029, 182.86503623188406, 182.50815217391303, 182.46557971014494, 182.3822463768116, 182.16576086956522, 182.34329710144928, 182.3786231884058, 182.84283088235293, 182.76838235294116, 182.76654411764704, 182.63878676470588, 182.16666666666666, 182.16304347826087, 182.51654411764704, 182.1639492753623, 182.1286231884058, 182.32065217391303, 182.72794117647058, 182.6231884057971, 182.8913043478261, 182.9139492753623, 182.68478260869566, 182.46467391304347, 182.48913043478262, 182.41938405797103, 182.54438405797103, 183.01470588235293, 182.09256055363323, 183.1222426470588, 183.07904411764704, 182.99908088235293, 183.02941176470588, 183.17738970588235, 183.20128676470588, 183.24632352941177, 183.32077205882354, 183.16576086956522, 182.95018115942028, 182.86141304347825, 182.64583333333334, 182.44021739130434, 182.92555147058823, 182.8034420289855, 182.01619778346122, 182.16368286445012, 181.74003623188406, 181.87409420289856, 181.77445652173913, 181.82518115942028, 182.54930795847753, 181.88315217391303, 182.43478260869566, 182.45183290707587, 182.13858695652175, 182.17934782608697, 182.3822463768116, 183.02205882352942, 183.0422794117647, 182.9610507246377, 182.90579710144928, 182.70742753623188, 182.52626811594203, 182.53985507246378, 182.62409420289856, 181.99403239556693, 182.12276214833759, 182.65397923875432, 182.3327205882353, 183.71507352941177, 182.51918158567776, 182.9143598615917, 182.63878676470588, 182.52989130434784, 182.7201086956522, 182.85054347826087, 183.2941176470588, 183.11865942028984, 183.08242753623188, 182.9764492753623, 182.7355072463768, 182.64492753623188, 182.41213768115944, 183.7554347826087, 183.83967391304347, 182.8610400682012, 184.3483455882353, 184.28400735294116, 184.4108455882353, 184.42922794117646, 184.4329044117647, 184.52573529411765, 184.88619402985074, 184.58455882352942, 184.71323529411765, 184.70588235294116, 184.79136029411765, 184.68841911764704, 184.5983455882353, 184.34926470588235, 184.10294117647058, 183.9577205882353, 183.90533088235293, 184.01378676470588, 183.828125, 183.7297794117647, 183.67922794117646, 183.46783088235293, 183.88754325259515, 183.0461956521739, 184.61672794117646, 184.52297794117646, 183.06564364876385, 184.53308823529412, 183.37543252595157, 184.04595588235293, 183.65533088235293, 183.41544117647058, 182.90307971014494, 182.87409420289856, 183.03623188405797, 183.16938405797103, 183.22463768115944, 183.17663043478262, 182.875, 182.75271739130434, 182.67210144927537, 182.69384057971016, 182.77173913043478, 183.1378676470588, 183.51384083044982, 182.8141517476556, 182.45780051150896, 182.3913043478261, 182.35805626598466, 181.7663043478261, 181.97463768115944, 182.18840579710144, 182.20289855072463, 182.1802536231884, 182.15579710144928, 182.05887681159422, 182.40900735294116, 182.49816176470588, 183.08823529411765, 183.14965397923876, 182.54347826086956, 182.580615942029, 182.5753676470588, 182.36856617647058, 182.09742647058823, 182.01930147058823, 182.08514492753622, 182.62952898550725, 182.90489130434784, 182.05115089514067, 182.1705029838022, 182.19944852941177, 182.25735294117646, 181.91666666666666, 181.99184782608697, 182.45955882352942, 182.21829710144928, 182.18297101449275, 182.03623188405797, 182.0284926470588, 181.5570652173913, 181.47101449275362, 181.3894927536232, 181.35054347826087, 181.28351449275362, 181.765625, 181.80606617647058, 181.3514492753623, 181.36322463768116, 181.5534420289855, 181.7608695652174, 182.1378676470588, 182.22150735294116, 182.07789855072463, 182.03532608695653, 182.03308823529412, 181.8795955882353, 182.0266544117647, 181.97886029411765, 182.17003676470588, 182.32904411764704, 182.42003676470588, 182.40441176470588, 182.34926470588235, 182.3079044117647, 181.99547101449275, 181.98188405797103, 182.28768382352942, 182.23529411764704, 182.28125, 183.55606617647058, 183.05797101449275, 183.03532608695653, 182.95108695652175, 182.57971014492753, 181.71920289855072, 181.80163043478262, 181.893115942029, 182.37132352941177, 182.41268382352942, 182.4816176470588, 182.43933823529412, 182.32904411764704, 182.83823529411765, 182.80103806228374, 183.5514705882353, 182.3416955017301, 182.25865051903114, 182.3892733564014, 182.5363321799308, 182.34466911764704, 182.56525735294116, 182.6295955882353, 182.60845588235293, 182.59191176470588, 182.47610294117646, 183.022491349481, 183.9577205882353, 183.83731617647058, 182.8892733564014, 182.45609548167093, 183.27989130434784, 181.93947144075022, 181.97868712702473, 182.21020761245674, 183.31066176470588, 182.27621483375958, 182.3162830349531, 182.65051903114187, 182.4160272804774, 182.5080988917306, 183.35960144927537, 183.38134057971016, 182.53537936913895, 183.56340579710144, 183.8878676470588, 183.39492753623188, 183.49356617647058, 183.18659420289856, 183.3722426470588, 182.99909420289856, 182.99003623188406, 183.21557971014494, 183.3197463768116, 182.26342710997443, 183.33152173913044, 183.58823529411765, 183.640625, 183.56617647058823, 183.53676470588235, 183.23913043478262, 183.15942028985506, 183.28768382352942, 182.84782608695653, 182.82246376811594, 182.76721014492753, 182.73822463768116, 181.79624893435636, 181.94373401534526, 182.10485933503836, 182.30946291560102, 182.5072463768116, 182.85034602076126, 182.80622837370242, 182.4833759590793, 183.4909420289855, 182.54816709292413, 183.65398550724638, 183.66938405797103, 183.6268115942029, 183.46648550724638, 183.21739130434784, 182.02813299232736, 181.89428815004263, 182.0238704177323, 182.4740484429066, 182.11029411764704, 182.080615942029, 182.16032608695653, 182.3768115942029, 182.67934782608697, 183.27941176470588, 183.62867647058823, 182.92214532871972, 183.01989619377164, 183.08044982698962, 183.13754325259515, 182.87894288150042, 183.00255754475702, 184.0643115942029, 184.10235507246378, 184.265625, 183.95680147058823, 183.58967391304347, 183.49003623188406, 183.32246376811594, 183.2753623188406, 183.35202205882354, 183.22058823529412, 182.83242753623188, 182.984375, 183.20934256055364, 183.85753676470588, 183.41757246376812, 183.39945652173913, 183.16485507246378, 182.98641304347825, 182.90942028985506, 183.59861591695503, 183.37510656436487, 183.36828644501279, 183.08866155157716, 183.19204152249137, 183.01989619377164, 182.8618925831202, 182.98039215686273, 183.09466911764704, 183.67003676470588, 183.83455882352942, 183.57789855072463, 183.5625, 183.57444852941177, 183.36029411764704, 183.10753676470588, 183.00367647058823, 183.48356401384083, 184.38051470588235, 184.37591911764704, 183.90126811594203, 182.56095481670928, 183.7536231884058, 182.7246376811594, 182.68968456947997, 182.9846547314578, 182.6911231884058, 182.70652173913044, 182.90579710144928, 183.27791986359762, 183.10997442455243, 183.35034602076126, 183.4134948096886, 183.92572463768116, 184.18014705882354, 184.2233455882353, 184.2297794117647, 183.625, 183.40851449275362, 183.29891304347825, 183.2536231884058, 183.02626811594203, 183.2019927536232, 182.22676896845695, 182.23614663256606, 183.30072463768116, 183.1711956521739, 183.12228260869566, 183.0788043478261, 183.03985507246378, 183.10326086956522, 183.1394927536232, 183.33514492753622, 183.20742753623188, 182.830615942029, 182.67572463768116, 182.60778985507247, 182.48278985507247, 182.1330357142857, 182.5108695652174, 182.49637681159422, 182.6105072463768, 182.50271739130434, 182.5697463768116, 182.23188405797103, 182.1856884057971, 182.02717391304347, 182.03623188405797, 181.93478260869566, 181.8125, 181.84239130434784, 182.19948849104858, 181.56702898550725, 181.61684782608697, 181.72554347826087, 181.95742753623188, 182.08967391304347, 182.21739130434784, 182.25815217391303, 182.32518115942028, 182.16032608695653, 182.2427536231884, 182.29891304347825, 182.42934782608697, 182.57789855072463, 182.56702898550725, 182.67753623188406, 182.66576086956522, 182.51268115942028, 182.2590579710145, 181.99642857142857, 182.06875, 181.44671781756182, 181.71014492753622, 181.94032395566921, 181.40803571428572, 181.94021739130434, 181.9320652173913, 181.97916666666666, 182.5004262574595, 182.4305200341006, 182.69809688581316, 182.42881500426256, 183.4538043478261, 182.38789428815005, 183.46467391304347, 182.31116794543905, 183.1802536231884, 183.02083333333334, 182.98097826086956, 183.09239130434784, 183.1893115942029, 182.3393009377664, 182.6069906223359, 182.87716262975778, 182.92820069204151, 182.75873827791986, 183.0847750865052, 182.768968456948, 183.02728047740837, 183.05882352941177, 182.6177536231884, 183.14066496163682, 182.97186700767264, 182.73316283034953, 183.79136029411765, 182.34015345268543, 182.55536332179932, 183.68841911764704, 183.56893382352942, 183.7545955882353, 182.7257785467128, 182.60358056265986, 183.5860507246377, 183.47554347826087, 183.48641304347825, 183.73529411764704, 183.52807971014494, 183.53623188405797, 183.76992753623188, 183.6856884057971, 183.52083333333334, 183.5090579710145, 183.59148550724638, 182.82698961937717, 183.0076726342711, 182.96648550724638, 183.46014492753622, 183.89613970588235, 183.81341911764704, 183.5909926470588, 183.64100346020763, 183.88134057971016, 183.44565217391303, 183.21195652173913, 183.0, 183.4842284739983, 183.04433077578858, 183.68478260869566, 183.47916666666666, 183.37047101449275, 183.29710144927537, 183.33514492753622, 182.35123614663257, 182.38107416879797, 182.34100596760445, 183.29891304347825, 183.26268115942028, 183.1159420289855, 182.90307971014494, 183.22506393861892, 183.05626598465474, 182.58067226890756, 182.6479113384484, 182.65046888320546, 182.18840579710144, 182.38496376811594, 182.41304347826087, 182.41123188405797, 182.4927536231884, 181.52855924978687, 182.455615942029, 182.41485507246378, 182.4211956521739, 182.4447463768116, 182.39221014492753, 182.44202898550725, 182.57246376811594, 182.10267857142856, 181.88482142857143, 181.84375, 181.81428571428572, 181.65625, 181.59553571428572, 180.91304347826087, 181.29070758738277, 181.35549872122763, 181.460358056266, 181.3042016806723, 181.41932773109244, 181.53361344537817, 181.3605072463768, 181.5461956521739, 181.96589940323955, 181.29257246376812, 180.5392857142857, 180.48571428571427, 180.3642857142857, 180.40267857142857, 180.92481884057972, 180.97916666666666, 181.00996376811594, 181.10235507246378, 180.97142857142856, 181.43659420289856, 181.54347826086956, 181.70018115942028, 181.92391304347825, 180.6999147485081, 180.47911338448424, 180.4228473998295, 180.3614663256607, 180.4236999147485, 180.36658141517478, 180.28151260504202, 180.29579831932773, 180.190756302521, 181.5878623188406, 181.54528985507247, 181.81801470588235, 181.64221014492753, 181.41517857142856, 181.93193277310925, 182.38277919863597, 182.35464620630862, 181.4348214285714, 181.33660714285713, 181.99744245524298, 181.4701086956522, 181.49184782608697, 181.70923913043478, 181.72916666666666, 181.82246376811594, 182.05887681159422, 181.06649616368287, 182.16666666666666, 181.87321428571428, 181.88125, 182.10507246376812, 181.90535714285713, 182.06340579710144, 181.81340579710144, 181.77898550724638, 181.6983695652174, 181.65670289855072, 181.66032608695653, 181.62142857142857, 181.83214285714286, 180.91344537815127, 181.20252100840338, 181.55546218487396, 181.71344537815128, 181.7201680672269, 181.7546218487395, 181.7294117647059, 181.8252100840336, 181.89599317988063, 182.7128623188406, 182.41964285714286, 182.46428571428572, 182.49642857142857, 182.3875, 182.53660714285715, 182.66875, 182.90803571428572, 182.9035714285714, 183.17753623188406, 183.2590579710145, 182.9973214285714, 183.10267857142856, 183.49728260869566, 183.5108695652174, 182.47229326513215, 182.35546218487397, 182.5, 182.09285714285713, 182.20089285714286, 182.59057971014494, 182.50625, 182.38482142857143, 182.33035714285714, 182.03035714285713, 182.54453781512606, 182.8073316283035, 182.79624893435636, 182.84398976982098, 182.62100840336134, 182.35714285714286, 181.94285714285715, 182.93478260869566, 182.68387681159422, 182.42753623188406, 182.77493606138108, 181.99107142857142, 182.8542199488491, 182.98209718670077, 182.79880647911338, 182.6837169650469, 183.53985507246378, 183.2889492753623, 183.28170289855072, 183.56801470588235, 183.08214285714286, 183.23188405797103, 183.18659420289856, 183.1455357142857, 183.26160714285714, 182.5447570332481, 182.67860187553282, 182.53781512605042, 182.6420168067227, 182.9531116794544, 182.90281329923275, 182.88235294117646, 182.66325660699061, 182.66410912190963, 182.25966386554623, 182.3218487394958, 183.40714285714284, 183.51696428571427, 183.3267857142857, 183.37228260869566, 183.27717391304347, 183.17481884057972, 183.05797101449275, 183.01992753623188, 182.85, 181.88403361344538, 181.75714285714287, 181.71344537815128, 181.55882352941177, 182.52232142857142, 182.48392857142858, 182.47232142857143, 182.59642857142856, 182.53839285714284, 182.63125, 183.10084033613447, 182.69285714285715, 182.85625, 183.18840579710144, 183.01517857142858, 182.8642857142857, 182.84553571428572, 182.71875, 181.6655462184874, 181.709243697479, 181.90504201680673, 182.18670076726343, 182.2549019607843, 181.8361344537815, 181.83697478991598, 181.83361344537815, 183.01339285714286, 183.22826086956522, 182.2617220801364, 182.67178175618074, 182.46218487394958, 182.50420168067228, 182.79454390451832, 182.56806722689078, 182.527731092437, 182.4563025210084, 182.2058823529412, 182.98839285714286, 182.88035714285715, 182.92572463768116, 182.76160714285714, 181.92857142857144, 182.1420168067227, 182.17058823529413, 182.0621848739496, 182.10000000000002, 182.4006820119352, 182.3393009377664, 182.45780051150896, 182.56436487638533, 182.7450980392157, 183.48660714285714, 182.38487394957986, 183.5830357142857, 182.55462184873952, 183.48035714285714, 183.5461956521739, 183.44021739130434, 183.50815217391303, 183.3451086956522, 182.08823529411765, 182.3966386554622, 182.54033613445378, 182.93435635123615, 182.83375959079285, 182.71270247229327, 182.49445865302644, 183.57065217391303, 183.59963768115944, 183.65307971014494, 183.6195652173913, 183.68840579710144, 183.39583333333334, 182.90803571428572, 183.24705882352941, 182.5767857142857, 182.8723214285714, 183.16517857142856, 183.32946428571427, 182.40252100840337, 182.91133844842284, 182.99573742540494, 182.66638655462185, 182.87468030690536, 182.6344537815126, 182.69053708439898, 183.7826086956522, 183.64945652173913, 183.84825234441604, 183.1798319327731, 183.02857142857144, 182.8890756302521, 182.9605042016807, 182.49375, 182.75357142857143, 182.81785714285715, 183.00982142857143, 183.0375, 182.96696428571428, 182.90714285714284, 182.77232142857142, 182.73749999999998, 182.74642857142857, 182.6330357142857, 182.32946428571427, 182.74117647058824, 182.12857142857143, 182.5747899159664, 182.02410714285713, 182.30803571428572, 182.30714285714285, 182.27678571428572, 182.69053708439898, 182.63341858482522, 182.30840336134455, 182.62659846547314, 182.3436974789916, 182.20252100840338, 181.97058823529412, 181.94621848739496, 181.9310924369748, 181.88991596638655, 181.88403361344538, 182.04873949579834, 182.0747899159664, 181.6017857142857, 181.64107142857142, 182.17394957983194, 182.13361344537816, 182.3747899159664, 182.32689075630253, 182.73657289002557, 182.38315217391303, 182.04464285714286, 182.04196428571427, 182.375, 181.13981244671783, 182.0705357142857, 182.34420289855072, 181.0058823529412, 181.0529411764706, 181.15546218487395, 181.20252100840338, 181.17394957983194, 181.3470588235294, 181.4966386554622, 181.99403239556693, 181.76722689075632, 181.84873949579833, 181.7546218487395, 182.44565217391303, 181.01619778346122, 181.07331628303496, 180.8201680672269, 181.1159420289855, 180.78655462184875, 181.94464285714284, 180.61092436974792, 180.7436974789916, 181.725, 180.7764705882353, 182.05625, 181.09159663865546, 181.24117647058824, 181.29747899159665, 182.4348214285714, 182.35357142857143, 182.50267857142856, 182.53482142857143, 181.22436974789917, 181.2764705882353, 181.38319327731094, 181.61381074168798, 181.70673486786018, 181.46470588235294, 181.8218243819267, 181.9923273657289, 181.44821428571427, 181.80357142857142, 182.1413043478261, 182.03804347826087, 182.55498721227622, 182.5319693094629, 182.3327731092437, 182.4543904518329, 182.41687979539643, 182.4006820119352, 182.462063086104, 182.15771526001706, 181.7310924369748, 181.5731092436975, 181.65046888320546, 181.51764705882354, 182.84732142857143, 181.8310924369748, 181.87731092436977, 182.14236999147485, 181.71512605042017, 182.74553571428572, 182.7392857142857, 182.69642857142856, 182.92028985507247, 182.9764492753623, 182.80163043478262, 182.72463768115944, 182.57427536231884, 182.46195652173913, 182.39492753623188, 182.55434782608697, 182.37946428571428, 182.44732142857143, 182.42857142857142, 182.3098214285714, 182.23571428571427, 182.61092436974792, 181.93839285714284, 182.32268907563025, 182.190756302521, 182.0605042016807, 181.96218487394958, 181.98891730605285, 181.9462915601023, 181.80818414322252, 181.83972719522592, 181.4981884057971, 181.28482142857143, 181.48749999999998, 181.5857142857143, 181.4375, 181.72689075630254, 181.05803571428572, 181.58655462184876, 181.60504201680672, 181.83631713554988, 181.9778346121057, 181.7403361344538, 181.34789915966388, 181.0201680672269, 180.83949579831935, 180.74705882352941, 180.5764705882353, 180.70000000000002, 181.16027280477408, 181.33503836317135, 180.92268907563027, 181.28132992327366, 180.93529411764706, 181.01512605042018, 180.95126050420168, 180.96218487394958, 181.0344537815126, 180.9638655462185, 180.9201680672269, 180.55462184873952, 180.81329923273657, 180.79113384484228, 180.29710144927537, 180.86786018755328, 180.60504201680672, 180.16607142857143, 180.65546218487395, 180.17232142857142, 180.60672268907564, 180.90196078431373, 181.12787723785166, 180.88487394957986, 180.56964285714284, 180.71785714285713, 180.84642857142856, 180.76964285714286, 180.52946428571428, 180.50815217391303, 180.80392156862746, 180.57374254049446, 180.07427536231884, 180.60443307757885, 180.14492753623188, 180.65046888320546, 179.78035714285713, 180.20840336134455, 180.14453781512606, 180.07899159663867, 180.1621848739496, 180.19159663865548, 180.409243697479, 180.46974789915967, 180.9156010230179, 180.8243819266837, 180.5788576300085, 180.12228260869566, 180.3966386554622, 180.81841432225065, 180.20267857142858, 180.55892857142857, 180.65892857142856, 180.95267857142858, 179.95126050420168, 181.41938405797103, 181.1955357142857, 180.0386554621849, 181.2875, 180.15210084033615, 181.52898550724638, 181.5108695652174, 181.15803571428572, 181.56890756302522, 181.25882352941179, 181.38618925831202, 181.3239556692242, 180.7518115942029, 181.3930093776641, 180.94202898550725, 181.1983695652174, 181.30887681159422, 181.28170289855072, 181.29438405797103, 181.15803571428572, 181.2107142857143, 181.40535714285713, 181.35089285714284, 181.71176470588236, 181.60420168067228, 181.56974789915967, 181.55328218243818, 181.11008403361345, 182.4411231884058, 181.12857142857143, 181.57374254049446, 181.5605042016807, 181.35089285714284, 181.95652173913044, 181.69732142857143, 181.80625, 181.79642857142858, 181.70446428571427, 181.9495798319328, 181.89075630252103, 181.75210084033614, 182.78839285714284, 182.4267857142857, 182.0, 182.075, 182.28839285714284, 181.4218487394958, 181.70420168067227, 181.8151260504202, 182.01428571428573, 181.59017857142857, 181.82767857142858, 182.10089285714284, 182.14464285714286, 182.59159663865546, 182.48319327731093, 182.77834612105713, 182.73316283034953, 182.84739982949702, 182.70332480818414, 182.5464620630861, 182.17899159663867, 182.09915966386555, 182.19747899159665, 181.98571428571427, 182.37142857142857, 182.78532608695653, 182.60267857142856, 181.57731092436975, 182.64464285714286, 182.54196428571427, 182.73445378151263, 182.55882352941177, 182.3252100840336, 182.29075630252103, 182.6683716965047, 182.50298380221653, 181.9605042016807, 181.98823529411766, 181.64374999999998, 182.03351449275362, 182.18387681159422, 181.9517857142857, 182.4701086956522, 182.16875, 182.5144927536232, 182.42210144927537, 182.57065217391303, 182.58967391304347, 182.67663043478262, 182.37678571428572, 182.27589285714285, 182.42499999999998, 182.15535714285713, 181.78392857142856, 181.51874999999998, 181.3642857142857, 181.325, 181.5142857142857, 181.7785714285714, 181.2003410059676, 181.36999147485082, 181.39982949701619, 180.72232142857143, 181.33445378151262, 181.71867007672634, 181.49909420289856, 181.42767857142857, 181.9855072463768, 182.1983695652174, 181.88392857142856, 181.61339285714286, 181.63677536231884, 181.37409420289856, 180.81339285714284, 180.79821428571427, 180.95742753623188, 180.73392857142858, 180.6375, 181.09915966386555, 181.17476555839727, 181.07331628303496, 181.97101449275362, 182.1086956521739, 181.56964285714284, 182.16847826086956, 181.8894927536232, 181.62228260869566, 181.4465579710145, 181.34692028985506]
