[156.93922271529917, 156.9429214920639, 156.9497072698359, 156.9563834560081, 156.95658120872727, 156.9471192702921, 156.94982946369888, 156.95307774634625, 156.94156908197115, 156.94836689832806, 156.9441847041847, 156.94311220413022, 156.94314393149037, 156.94038479470362, 156.9403049354432, 156.93743923067703, 156.9357028381672, 156.94856711580724, 156.94004004137312, 156.93672380580387, 156.9561213843319, 156.94886663854538, 156.9453178764724, 156.9460118286445, 156.96040579838834, 156.95319874438903, 156.9520513890492, 156.95319762924814, 156.96425384167972, 156.96430379297178, 156.96258341806492, 156.9619795158204, 156.94434973318062, 156.94710274897002, 156.9425716467204, 156.947728029479, 156.96221849246945, 156.95662790749302, 156.9614894476735, 156.9659804435287, 156.9617709364966, 156.965308624427, 156.9667464763081, 156.96355027272887, 156.96154563707114, 156.9691112315525, 156.9666648899786, 156.97140496014643, 156.97072375290475, 156.97145015441356, 156.96978072026837, 156.96690957564985, 156.96052087915018, 156.96181276077655, 156.96385579644777, 156.9729969957158, 156.96815289454506, 156.9685013130007, 156.96756173004107, 156.96549440978333, 156.97045504037544, 156.96450650891782, 156.97161411915314, 156.9625147225494, 156.96538071878, 156.96826842750752, 156.96274442721503, 156.95146584436011, 156.94764921196182, 156.94664558311422, 156.93301384404242, 156.93351775953252, 156.9293513251899, 156.9272687711757, 156.92214752584277, 156.92733173792007, 156.9122426965095, 156.92113605285124, 156.91888244147378, 156.91860428977992, 156.92224599975137, 156.92045020645563, 156.91944956164687, 156.91624644886363, 156.92534404687916, 156.9183553884467, 156.9240466995161, 156.93053039988635, 156.93529443097984, 156.92345559545635, 156.92704051282504, 156.93289886662788, 156.93078999476117, 156.92449639106155, 156.93260172779657, 156.93362837750857, 156.92742501043062, 156.92472211371143, 156.92323844869838, 156.92459422503197, 156.92306462997243, 156.9329071496748, 156.91663448520765, 156.92146575944395, 156.92743245762787, 156.919717715985, 156.9183109970746, 156.9101554003968, 156.91594057516213, 156.92021288401017, 156.92807387511377, 156.93485326111087, 156.92799392623573, 156.9278131729083, 156.9361487671561, 156.92958065432845, 156.93775893075198, 156.9405478867985, 156.9515080990091, 156.9392306906552, 156.94451402583098, 156.95384061865653, 156.92915917316105, 156.9386653756296, 156.91917733998898, 156.92603500355366, 156.92859522487507, 156.92529350882413, 156.93942247889828, 156.94075541949732, 156.92224828309213, 156.93317339730774, 156.93179192805985, 156.94047354527922, 156.93488597379974, 156.94195690436823, 156.9357614657694, 156.93555326411607, 156.93975967886055, 156.9384892326155, 156.9451834332154, 156.94655297355212, 156.93671234947124, 156.94826942397114, 156.93686334465164, 156.9305342595432, 156.93011029836552, 156.93942599127166, 156.94377627847854, 156.95308569549258, 156.93240432981995, 156.94450369738337, 156.93606831227453, 156.9476778287299, 156.9396688450449, 156.9282179757114, 156.9373367566319, 156.94989404850224, 156.9408968538148, 156.9455512409252, 156.93616028787844, 156.95001155083256, 156.95016813479214, 156.9612878003705, 156.9660400323386, 156.9562309301427, 156.96388945643196, 156.95973118590015, 156.96046454822022, 156.9626736419512, 156.96267788299252, 156.96254601812748, 156.95734664511198, 156.9498388199668, 156.95274695510471, 156.96081470592156, 156.96035559186865, 156.95151227180483, 156.96099651397742, 156.9568474385105, 156.9548758664482, 156.9598983914947, 156.95584401742613, 156.94495217287042, 156.96463383765493, 156.95446935685135, 156.94486898836192, 156.96332980963126, 156.95454121492878, 156.95814827316656, 156.959379927599, 156.96425161533853, 156.95964772813068, 156.9551255861873, 156.95354795737123, 156.95681641535833, 156.9499664696295, 156.95674343201048, 156.9445409203356, 156.96064163901363, 156.9496257800875, 156.95712997392258, 156.95795216748047, 156.96492444136373, 156.96684218711815, 156.9687293087742, 156.96566021971773, 156.95983910753571, 156.97227259796603, 156.9683114712563, 156.9646320973606, 156.9665677001849, 156.96371046596383, 156.97942181936187, 156.96537545119935, 156.97966559822885, 156.97303881255195, 156.97660998110482, 156.96715007202178, 156.96327294385378, 156.97596611163956, 156.97495689118801, 156.97276916445594, 156.9671217535065, 156.97549182986933, 156.97956989247314, 156.97114829262225, 156.95472596593788, 156.94722164245718, 156.95878261950864, 156.9630716893314, 156.95774303859307, 156.9403850594107, 156.95863107266098, 156.9628822027312, 156.95766754008085, 156.9510050753307, 156.9638034167159, 156.9638295793662, 156.95196508489025, 156.94851086879308, 156.943287227193, 156.93603473998294, 156.9470992034243, 156.95601531137874, 156.9546665482639, 156.9553194417927, 156.93946040019355, 156.95539107732748, 156.96000657231545, 156.95936009803663, 156.95584454794496, 156.97238246226402, 156.95842361382446, 156.96669197738908, 156.96888389626187, 156.96311853930587, 156.96842002433328, 156.9724594619802, 156.96940284259182, 156.9805784279763, 156.96556210810525, 156.97545140461662, 156.9620792255085, 156.97514245235672, 156.9796649017448, 156.97376837990316, 156.97781390328726, 156.9796726117762, 156.95572906257357, 156.97076028586784, 156.95772645905237, 156.96314627308635, 156.9609144542773, 156.9606389123384, 156.951370900738, 156.96484281257497, 156.96190734386943, 156.97302979256764, 156.95888535810315, 156.96500733365926, 156.96522338297402, 156.95637833008087, 156.9604850791054, 156.96484177018218, 156.96058749788847, 156.94200302275962, 156.95915708982596, 156.95535412628698, 156.94425500700203, 156.96092833007293, 156.95863550063805, 156.96683056513854, 156.95515740909474, 156.97532592800025, 156.9767040782309, 156.9676345486304, 156.97304914097748, 156.9691381892686, 156.97976480418126, 156.97406804970402, 156.97764812008694, 156.98651254977247, 156.98331141364235, 156.9931918070597, 156.99688498438047, 157.0008886992997, 157.00114634568988, 157.00160404521543, 156.99573496352505, 157.0031500470952, 157.0010083824568, 157.00646385130034, 157.0193173185003, 157.0214333318523, 157.0137833311864, 157.01297143618675, 157.03262250655294, 157.03426519985072, 157.04548241755313, 157.0413614495831, 157.04214753413825, 157.0364325178987, 157.0723806392564, 157.0555614783227, 157.05593196994806, 157.05383603994173, 157.06239061097932, 157.0532687866406, 157.05691873067767, 157.05791224555963, 157.04268558079215, 157.06283290020212, 157.05188136579474, 157.05446501152733, 157.0480378439603, 157.06273128301268, 157.04669115524186, 157.04957264197884, 157.05141486384434, 157.04687847046387, 157.04872067140872, 157.05042300582966, 157.0512584612239, 157.0535009598976, 157.0527667896351, 157.05459676881708, 157.06720354839715, 157.06410188025072, 157.07406847554984, 157.08197734386113, 157.07645996923105, 157.07134123840137, 157.07386623861123, 157.08284378905051, 157.08152882105196, 157.0825045368822, 157.0962853545353, 157.09442541264403, 157.0800222444667, 157.08964087599034, 157.09429379737375, 157.0945238444738, 157.09956673368802, 157.09606301313812, 157.09440231291003, 157.09104574523911, 157.08938299055032, 157.0960419066084, 157.09701648515357, 157.08545355089188, 157.0922524157006, 157.08432561738002, 157.09415066062448, 157.09538694115292, 157.0970945020544, 157.0947962744793, 157.0982788747549, 157.10301467318808, 157.10040907069808, 157.10218562714516, 157.1150241421318, 157.10630323831202, 157.10219442147476, 157.0997732930299, 157.11347287552348, 157.11030264777915, 157.0924802573982, 157.07244129473708, 157.06631864226054, 157.06523979600902, 157.06561171406105, 157.06820341994228, 157.06058533248645, 157.05695910173046, 157.06686388692705, 157.04242168594453, 157.04885922610327, 157.04889788813696, 157.04661602056626, 157.0555851583453, 157.05157783964512, 157.04850834077052, 157.05258951051746, 157.0628377568284, 157.05378588686753, 157.05477511247707, 157.05052178160665, 157.0528732773438, 157.05575318313637, 157.06056299244074, 157.06307182575637, 157.0513106302482, 157.06161362677386, 157.06934131523786, 157.05753226336498, 157.0573772312011, 157.05340101162167, 157.05565596593055, 157.04979973534873, 157.0558259541171, 157.05318756854928, 157.06545654809756, 157.0532587213821, 157.05125312058567, 157.04555487948411, 157.05421866045927, 157.05673402842254, 157.05704180607208, 157.04601898871962, 157.05938838627114, 157.0537414633496, 157.05636563220793, 157.05074147975984, 157.05252725470763, 157.05357103173017, 157.06136256545668, 157.05020267747614, 157.0505698892228, 157.06242886106565, 157.0575002889685, 157.06762849012983, 157.06186754166, 157.06090849278044, 157.05580868135044, 157.05506781235692, 157.05303141433404, 157.0505548321727, 157.04569635611335, 157.04129351686007, 157.04263026655585, 157.04322801153813, 157.05061186751837, 157.05184905324919, 157.0348360200358, 157.04904706028765, 157.06109014619142, 157.06191409635824, 157.0663898385713, 157.05787555555554, 157.06155528197652, 157.05603252899616, 157.05691544676424, 157.07061364717177, 157.06154003413212, 157.06066423156568, 157.07012172089074, 157.0727918271944, 157.07270109451588, 157.06380435700225, 157.0694922709843, 157.06299502916312, 157.06650879897637, 157.07192914628024, 157.0698124025013, 157.06445893947338, 157.06432465334086, 157.07020568488312, 157.0838139758094, 157.06621589803507, 157.07164468218392, 157.06913126143894, 157.0744488969053, 157.0768591700098, 157.0630089156016, 157.0622729170553, 157.0626912605318, 157.06468837457243, 157.0763945028294, 157.0702450335833, 157.0587906059408, 157.0494710005241, 157.05625869046614, 157.05810642107275, 157.05971230052955, 157.06240531691344, 157.0529273526106, 157.0757175864214, 157.0612562258132, 157.07688546958403, 157.07327967431254, 157.07773743227807, 157.06708295371214, 157.0780774907093, 157.08431244415402, 157.07825711973965, 157.08484940120692, 157.0645690506042, 157.07139014011233, 157.0761408454462, 157.07168807837175, 157.07788263127935, 157.0825614230128, 157.09386758466096, 157.07938195225876, 157.07367943575287, 157.09464652664727, 157.08637796921488, 157.0833855966694, 157.07849049219988, 157.07476111923805, 157.0713428297055, 157.08804930761227, 157.09620814934388, 157.09775856932606, 157.10511104688646, 157.10621621140987, 157.10685706156417, 157.1151763806408, 157.10039334207428, 157.10765640626735, 157.10603562078575, 157.10173077435928, 157.09908, 157.10782849829351, 157.11175155654908, 157.09572288755083, 157.1052923899955, 157.08887921189796, 157.09251516296015, 157.0851529839308, 157.08917327645582, 157.0849498387197, 157.0675328713575, 157.0813543360253, 157.07861270649275, 157.0831541823609, 157.09471051544378, 157.10228055287746, 157.08926231437925, 157.09510692086567, 157.0863386375954, 157.0882501887966, 157.08970002265488, 157.09525903617134, 157.10527952518038, 157.11224517000514, 157.11956154693777, 157.114494183308, 157.12616211892276, 157.1092778649224, 157.10788595598723, 157.09641305410184, 157.09521038157902, 157.09781686166642, 157.10051102026307, 157.10174643380884, 157.09341218392746, 157.0988319656654, 157.11304262816668, 157.12081840568246, 157.11344399594574, 157.12777879069517, 157.12827182065953, 157.13286324653325, 157.1281656894168, 157.13927167979517, 157.1474638599487, 157.1562929397587, 157.157779102141, 157.15870580386925, 157.15976018182062, 157.15184729009277, 157.15030356944288, 157.142084643332, 157.14305726648908, 157.15905896377484, 157.1539419437761, 157.1507350815151, 157.1316476527231, 157.1549193017421, 157.15358609246482, 157.16177877023404, 157.15298230320712, 157.15910101764874, 157.1748252992487, 157.15959599553477, 157.15426828183647, 157.14985261491813, 157.1502693620653, 157.15198655922342, 157.15420380042227, 157.14387159273707, 157.14221657341693, 157.14836774150538, 157.15006532694582, 157.15401981130816, 157.14746318530433, 157.14390845461617, 157.14532656706868, 157.1550665961522, 157.1496555708635, 157.14340756278247, 157.15544089806147, 157.1410709842534, 157.15157574788034, 157.16125118870926, 157.15796489668963, 157.16013668741863, 157.1633398506932, 157.16302618833922, 157.13903085031686, 157.14662098508683, 157.13764255852286, 157.12992932249998, 157.14475631051138, 157.14138326327858, 157.15093735975154, 157.1401367556304, 157.13705489037474, 157.1390927344125, 157.15430381771648, 157.14664705803946, 157.14891489815508, 157.15255382017727, 157.14748992549085, 157.17088672293409, 157.157057963349, 157.17105631642818, 157.17339319050583, 157.1849291623509, 157.1829595216396, 157.17988387704838, 157.18239088779126, 157.16678149934435, 157.16980502878994, 157.16572190730244, 157.15214327317673, 157.1541676113756, 157.16507258943062, 157.1593852391601, 157.16152939868846, 157.1671402841705, 157.1627680485267, 157.1677109505281, 157.17136719253847, 157.16771716938078, 157.17687383503934, 157.16424893047417, 157.18295330195815, 157.16308921248566, 157.16304028750102, 157.1612369446471, 157.16427316595878, 157.15126151328224, 157.15748787973135, 157.14814683060231, 157.14663808935157, 157.16071261801736, 157.1539877627975, 157.1585765555027, 157.1431614240104, 157.14884403343413, 157.1446329492104, 157.15596211986485, 157.1653017490508, 157.15837230807534, 157.15507039561132, 157.169458894669, 157.15593785423752, 157.18077747250305, 157.18147102625088, 157.1752867431315, 157.19272035251066, 157.17628363271058, 157.18169452347087, 157.19211599254817, 157.1782175136596, 157.1809694442345, 157.18240939540632, 157.18408665620652, 157.1905593706247, 157.1975987482553, 157.19644214484794, 157.2036174355236, 157.20489777777777, 157.20246137709114, 157.203372354515, 157.19032805681223, 157.19981513000891, 157.202408728307, 157.18810908816195, 157.18817063363355, 157.1742692136828, 157.1666059480545, 157.17369571592334, 157.16916130408507, 157.17284652849372, 157.16435221187817, 157.1686501764272, 157.16768223576312, 157.1647498000178, 157.16913640606248, 157.1695238433879, 157.17409531430604, 157.17656525063572, 157.17685036149078, 157.17090498461758, 157.17537557297385, 157.18321469381223, 157.18091316932626, 157.19159400054252, 157.1901054288522, 157.17847837878693, 157.19655880888004, 157.18815760217015, 157.18710033174133, 157.1885727752975, 157.18844491480203, 157.19375419595497, 157.19088730722552, 157.2001529480288, 157.19180530485582, 157.19529728720426, 157.19819619592033, 157.2035175544283, 157.21145407743637, 157.21426761446233, 157.21534993530832, 157.20931938522824, 157.21619819130868, 157.20784958662992, 157.20561329267534, 157.21406475012, 157.20805348244886, 157.20365168539325, 157.20725690308126, 157.20096091451327, 157.1977242927306, 157.18266341931698, 157.19420453484702, 157.19593099218727, 157.1950364223841, 157.21067133600576, 157.20711571368253, 157.21180606480803, 157.19568134954494, 157.20200229290535, 157.19817065040579, 157.20818539338327, 157.20258367847558, 157.204175035103, 157.1988455077899, 157.2038260715, 157.19535571937027, 157.2010835025843, 157.19071599055954, 157.20149167488955, 157.19687958394454, 157.18877886615348, 157.19251591224264, 157.2035225135917, 157.20388112121282, 157.19408147749655, 157.1925149381135, 157.18739747220357, 157.19295921180165, 157.18171632832716, 157.1822333084338, 157.17122227952552, 157.17851934192973, 157.1828850181653, 157.18238621707923, 157.17642375858927, 157.18044196585416, 157.1852301534356, 157.18404220302645, 157.19514831271766, 157.20043596245384, 157.19788279773155, 157.20544301207283, 157.20725962500836, 157.20524967306307, 157.2111005840306, 157.21414464905257, 157.20772364593805, 157.21660461951083, 157.20663568235898, 157.20192641212412, 157.20488336409528, 157.20252381926713, 157.2006671114076, 157.19894333312578, 157.19988437506947, 157.19225228750034, 157.19870976920785, 157.1956377733616, 157.20519512856652, 157.20246039755827, 157.20362805542095, 157.2007939648006, 157.21379886802686, 157.20819792384466, 157.20456525991926, 157.21963071806795, 157.21129440214082, 157.21201210811964, 157.21483756823557, 157.2167161604666, 157.2140390180155, 157.21367654313306, 157.21789613540523, 157.23124580561148, 157.21817810130744, 157.2301227149289, 157.2359509109739, 157.22385154771112, 157.22620068705922, 157.22178471274736, 157.22060653464644, 157.22688433391247, 157.23717726525354, 157.2261828587679, 157.2266621043323, 157.22450158656795, 157.22012656877735, 157.23223902881213, 157.22522370420393, 157.23517020709272, 157.23802687952212, 157.22584429956137, 157.2362116867818, 157.2316490413894, 157.2373395213201, 157.2338086010418, 157.23233908250356, 157.2512816864459, 157.23430177235903, 157.22837414857102, 157.23100594557818, 157.2372355944566, 157.21332028730905, 157.23467581224867, 157.22655760018148, 157.22434628676652, 157.22069898093082, 157.23390171314688, 157.22328835982367, 157.22405494613037, 157.23103208927333, 157.22552614015572, 157.22532347340132, 157.2240984226568, 157.22022683889455, 157.21557373767033, 157.20272633035398, 157.20641997721773, 157.20819111109134, 157.21405297128865, 157.2145979098791, 157.2097734656638, 157.20220089263861, 157.1972387465351, 157.20381338020334, 157.2028928763698, 157.20934371523916, 157.22145136240448, 157.2236934604056, 157.22649559341036, 157.2295426941848, 157.24387943499056, 157.23164703945758, 157.22683416146583, 157.22641425508633, 157.22266161928445, 157.22867386063393, 157.22135686550104, 157.222911042822, 157.2139690219639, 157.2086994414998, 157.21065082442504, 157.2111184734223, 157.20719751368318, 157.2013159942203, 157.21003748049282, 157.2013798437896, 157.2054554587929, 157.2067917148191, 157.2007359934578, 157.18955172137922, 157.18685196460552, 157.20108811606573, 157.20974230630742, 157.21128607174128, 157.20889214771364, 157.20788149754677, 157.21882527577043, 157.21916267740545, 157.22417594140026, 157.20635019399913, 157.21548984662152, 157.20935079478645, 157.20642933640255, 157.221838952726, 157.21213845087198, 157.21503344964773, 157.19915549925548, 157.1974719887644, 157.20739453366343, 157.20643457852532, 157.21273379599785, 157.19920701242822, 157.2066670223835, 157.20409742387926, 157.19403967325815, 157.20439455860966, 157.20265469017497, 157.20585736840937, 157.19947526403558, 157.19410200305975, 157.20416060634366, 157.19414391971245, 157.20958392832515, 157.20386181122504, 157.20432442051873, 157.21369928847, 157.22363502038345, 157.23658804730513, 157.22039246754287, 157.2304582990184, 157.22794516889937, 157.23382559774964, 157.2327507923507, 157.24482083240596, 157.23811813095094, 157.23769776614404, 157.2387525539615, 157.2345815272054, 157.22705243060653, 157.2302233493504, 157.23234147817269, 157.228921773641, 157.22874368729006, 157.2410926841424, 157.24414595188622, 157.23895521591376, 157.26084848161298, 157.23560915071636, 157.24690649657956, 157.2293139792406, 157.21408280393527, 157.21876153090395, 157.2103985595839, 157.21863550670508, 157.2195986199783, 157.2191458052699, 157.20886784904656, 157.20742893712335, 157.2048552621637, 157.20201360181358, 157.20960622991478, 157.19870601357087, 157.2089573463928, 157.20118916420776, 157.20793157076207, 157.20960702571531, 157.21407620723673, 157.21313041546324, 157.21394515958463, 157.20410739125992, 157.20867149651096, 157.19808008532954, 157.21445395479472, 157.2064798560032, 157.20121574604417, 157.21220431493515, 157.20879135533025, 157.21428190449097, 157.23314986395405, 157.2281950508167, 157.22110391919767, 157.22975141941248, 157.23261211749326, 157.2346312568928, 157.23475754839913, 157.23854998332035, 157.24417694265023, 157.25094204478216, 157.24388312543374, 157.24274587082914, 157.26203834295094, 157.2601113370683, 157.25067851962592, 157.2570926247385, 157.24687704432884, 157.24499641727007, 157.22643549772374, 157.23035502905915, 157.22583674141453, 157.23263638548426, 157.23595695632437, 157.22517281439312, 157.21047501635607, 157.21570940231808, 157.22113167570262, 157.21287106680313, 157.21849379089332, 157.21206726189948, 157.22406555888415, 157.21522581908658, 157.22201895300032, 157.23127256217253, 157.2355737347392, 157.23837563813265, 157.23179827684422, 157.22774951825298, 157.22761821693354, 157.2283494350672, 157.2320928763088, 157.2304026272227, 157.23052927617235, 157.2184356522861, 157.2044482007028, 157.21789476493825, 157.2190718095399, 157.2090044168079, 157.20659701373043, 157.22781983648997, 157.2179689619742, 157.207428096189, 157.20953609393763, 157.2205733243205, 157.2150801097479, 157.21365807237703, 157.21684143120146, 157.2144083324439, 157.21915541817697, 157.2172186372915, 157.21793053153027, 157.20516069935792, 157.22222518664765, 157.21488922685592, 157.2195946246409, 157.2292808097339, 157.21512160419724, 157.2168883079235, 157.21809475537535, 157.21638914208222, 157.22101584591582, 157.20309242143355, 157.20736196319018, 157.190065486167, 157.1984777960051, 157.2037709677276, 157.18959109459325, 157.19412839631323, 157.1997590211457, 157.1994014665404, 157.21107988152522, 157.1967084813746, 157.21048207026, 157.2032709449001, 157.20031758316543, 157.18798149630817, 157.18923042704625, 157.20009788218545, 157.19065730706953, 157.18781170336294, 157.18237351177237, 157.173900855644, 157.17903176291048, 157.17706456706927, 157.1824332439249, 157.17617797552836, 157.1882518863895, 157.19680694853562, 157.18346407293535, 157.18935709104503, 157.18829371612662, 157.18359001285992, 157.17902657387467, 157.18162076530456, 157.18422985006876, 157.20169391197533, 157.18941396342277, 157.1869284070832, 157.1906406462093, 157.1867740643496, 157.19342724675857, 157.19077597981854, 157.20338749226778, 157.19488135547974, 157.20510892393122, 157.19670475376867, 157.199842475537, 157.2004360497453, 157.21424884759818, 157.20544056665898, 157.21931046142757, 157.21520980887638, 157.22208181118373, 157.21715373936567, 157.20943165387612, 157.21526038306675, 157.20494048995712, 157.205219665365, 157.2021853792171, 157.20868652547875, 157.21342127852623, 157.222766245086, 157.21252940679437, 157.20752157884672, 157.21172907856294, 157.21171233272702, 157.21376252462676, 157.2134830961052, 157.21878821567537, 157.21497650056247, 157.20957924082825, 157.21580030857197, 157.22267381105897, 157.23397716710176, 157.23339412000178, 157.23336728294856, 157.22130017521857, 157.21923637916007, 157.2143918035557, 157.22026805884133, 157.2084976590532, 157.21931782807846, 157.22159765550305, 157.22442889986792, 157.21949202283764, 157.21970246169585, 157.22271791199455, 157.216194097894, 157.22976111036968, 157.23907172507685, 157.226396291386, 157.2377712917894, 157.23370295549407, 157.22366430554567, 157.2287645388935, 157.23422405161867, 157.21140678320526, 157.2277173090786, 157.22298028011053, 157.2232665776591, 157.23223004036655, 157.2204372610884, 157.21649801084024, 157.21636573218981, 157.21723843264317, 157.2094182357051, 157.2065527953075, 157.2190351150474, 157.22250661016497, 157.21869116449238, 157.21348134564195, 157.21728428034095, 157.2203085771265, 157.21756702022068, 157.2203129589575, 157.2172889502025, 157.23078634981817, 157.21872079465248, 157.22591842638127, 157.2499076410866, 157.23202025460645, 157.2511447833923, 157.2440892322343, 157.2426356727124, 157.2414300904484, 157.24795554250426, 157.23836598864628, 157.2325581395349, 157.24736301232744, 157.2449749358384, 157.23696465345083, 157.23546209068346, 157.24430377494463, 157.23542701611288, 157.22606928266777, 157.23755114748266, 157.228024384496, 157.2323224687625, 157.22701186470061, 157.2271654330866, 157.24029198508066, 157.2345990210592, 157.2326963510204, 157.24005388175354, 157.23447077282768, 157.23092238295226, 157.23566253278216, 157.22875201123625, 157.22660823262203, 157.2375521162069, 157.2369706804188, 157.23824129515782, 157.23070631639774, 157.22733718288947, 157.24193734828341, 157.2389218415132, 157.24087808695498, 157.23999679826395, 157.24240025614117, 157.24440856915407, 157.23586311178315, 157.24341045964434, 157.24432038079138, 157.23992188403605, 157.2516050668055, 157.23935022707357, 157.2422072058045, 157.23977154447675, 157.25331743220514, 157.24992545981283, 157.2397098740711, 157.23477270300097, 157.23681786424703, 157.24117089410413, 157.22860143376514, 157.23331286104656, 157.22407301920714, 157.23266846457147, 157.23478702051244, 157.2277492968778, 157.24299909665766, 157.23730480046268, 157.23838148334363, 157.22971830735284, 157.23965169724178, 157.22612417032937, 157.2467222195034, 157.24282358384795, 157.2510777827706, 157.24927149371595, 157.25156807444907, 157.2506172894431, 157.24882566456708, 157.2660996138584, 157.25654599322044, 157.26129524436516, 157.2441164437171, 157.2622636558126, 157.25707665692724, 157.25716877757222, 157.26280212571987, 157.25202536260883, 157.25321735727562, 157.24812240705415, 157.24544197605508, 157.24373177324136, 157.2615724581942, 157.2544796492757, 157.24969879651982, 157.25037677216287, 157.25853706247693, 157.2525526873786, 157.2539239313123, 157.25025338288376, 157.25223503051913, 157.26778767278597, 157.27470553448438, 157.256061346966, 157.25207700821915, 157.25746879112282, 157.2536366546334, 157.24479689903183, 157.24996110264013, 157.2531948278238, 157.2385255045578, 157.2433506382676, 157.24869319394068, 157.2488419648811, 157.2343492348515, 157.24331303613494, 157.26291221737156, 157.253489385157, 157.25457463456272, 157.2638327575705, 157.25877044807967, 157.2530017114534, 157.27094809380904, 157.26686022729294, 157.2581497092248, 157.2664333705362, 157.2687491105735, 157.261266468943, 157.2685326004785, 157.2684342558245, 157.27456090802752, 157.28293527048848, 157.2606841028378, 157.27363274820502, 157.27599615596804, 157.27985478036865, 157.2740582888819, 157.27720781243048, 157.26669543592095, 157.27876110132237, 157.2744504761057, 157.27911799390338, 157.26485493221568, 157.26701197913883, 157.2622917992373, 157.2750650795417, 157.26886863814752, 157.26161649869854, 157.27324916446753, 157.26812164897996, 157.25940609037679, 157.26918661564474, 157.27355656914008, 157.26813641520766, 157.27285993299847, 157.27618810317287, 157.28456431387556, 157.28131868131868, 157.2942121328077, 157.2881499971079, 157.2830964297631, 157.2764529258691, 157.28233053939104, 157.30361210977821, 157.29238613460518, 157.30936672820695, 157.3044584740371, 157.29121886120996, 157.30695650626424, 157.30601177977866, 157.3060101511101, 157.3099090844394, 157.31609803834348, 157.3071650646942, 157.3043518868554, 157.33158953006281, 157.31271430286805, 157.31421976526468, 157.3193966916785, 157.33459653242952, 157.3278402697161, 157.33307831904068, 157.33639497386855, 157.33392780107715, 157.3446198744556, 157.34345887942771, 157.33498647831192, 157.33517754216183, 157.3217732395243, 157.3284532598061, 157.32020935517008, 157.32279713934994, 157.3234472698811, 157.32022162142934, 157.31933307538702, 157.32284087876903, 157.3296774652648, 157.32939695586808, 157.33969767876366, 157.33410595437235, 157.33319243604006, 157.33214690899382, 157.33365370924108, 157.33586363090285, 157.32451288805436, 157.32610688381612, 157.3162407995799, 157.31487233341934, 157.31016699519884, 157.30626518245643, 157.3026802876059, 157.31334318157548, 157.29997286078472, 157.3137543656708, 157.31026795646486, 157.3098385969909, 157.30012016021362, 157.31210970708278, 157.3116540332667, 157.31197283090086, 157.32566804214574, 157.32738603988602, 157.3211074112326, 157.3253900772364, 157.32911330422047, 157.32450935442662, 157.3238013005105, 157.32807701551525, 157.33174598229584, 157.3366193860793, 157.34149869375003, 157.3479698752815, 157.34413665414536, 157.34159823753257, 157.3439636143549, 157.35109200236784, 157.3473143162298, 157.33313604727743, 157.3481650927022, 157.35467647032644, 157.34178324789977, 157.335692897726, 157.3378123442728, 157.33580412797707, 157.34240687679085, 157.33862054850596, 157.34744424225977, 157.352763452391, 157.35526087440206, 157.34507656307, 157.34793284757254, 157.35643317656584, 157.356418332755, 157.3559004608623, 157.36343939636612, 157.34797635410135, 157.35590717205733, 157.34089413104198, 157.34793960015122, 157.33707520358652, 157.34381907536303, 157.35386962206587, 157.34686361634843, 157.33609371664414, 157.33259210502908, 157.34324269029256, 157.33999519705418, 157.34259881075744, 157.34741500077826, 157.34926416629975, 157.3476797189425, 157.3379584539645, 157.34752482733163, 157.3472340198437, 157.34486469659575, 157.33530748264837, 157.34034228089442, 157.35247472793336, 157.34191147042344, 157.34739702389953, 157.34692252957396, 157.34592210171513, 157.33581721257175, 157.33098109314696, 157.33801451492405, 157.34900910837544, 157.3454600441187, 157.3420141977725, 157.33195742390612, 157.33168019570775, 157.33224797718972, 157.3215756379128, 157.32899196669246, 157.31707186914932, 157.33636953949886, 157.3293714163705, 157.3308463687648, 157.33025662012304, 157.32852319586482, 157.32418508846467, 157.32048846675713, 157.32227169807962, 157.31296626644306, 157.31849264787667, 157.30856908970384, 157.30270609326968, 157.3226640327109, 157.31498743075792, 157.32165199825582, 157.32827273819427, 157.3295092472276, 157.3117574819126, 157.33148057496328, 157.3262009238903, 157.3144654647707, 157.31011255950526, 157.31670862877326, 157.32090730748186, 157.32144573167477, 157.32473199590765, 157.33719202398854, 157.3279866912203, 157.32951715058354, 157.32521514821323, 157.32986293328113, 157.33470297095747, 157.3423477510651, 157.3403067782062, 157.34668771820589, 157.3350096935418, 157.33470875944863, 157.328123680362, 157.33171384374666, 157.33704918615712, 157.32865429492165, 157.33373783710502, 157.33995101198917, 157.33982006649717, 157.33837647560802, 157.31373646883165, 157.32565260285662, 157.33827522609604, 157.33329037533443, 157.33141203971167, 157.32695085581202, 157.33654735232406, 157.33622379362913, 157.3241040680753, 157.33331555839953, 157.33329481977879, 157.34458618543871, 157.35254027812354, 157.34377806029462, 157.3319759946655, 157.3552584186725, 157.35141612200437, 157.3410886489034, 157.33970208981768, 157.3505548019835, 157.34529379325065, 157.34601819111793, 157.3490866066782, 157.34570954526652, 157.34054931613477, 157.3439533507986, 157.3485917372429, 157.36226693774776, 157.33670065122237, 157.3486114447915, 157.345954315308, 157.3488941084361, 157.34403039186466, 157.3501027698933, 157.3449404960516, 157.36003755350484]
[138.15100575235266, 138.13881442227765, 138.14061615043673, 138.1532893745486, 138.1394800160059, 138.13167069337283, 138.12347378812282, 138.11169867382824, 138.0924766925494, 138.09063806580622, 138.08904714413347, 138.08959108192906, 138.09976727030931, 138.10578296853163, 138.11177307764225, 138.1145096450497, 138.12054637997298, 138.1360252674012, 138.12906929026695, 138.13618345516227, 138.12248619387282, 138.13333645073467, 138.12710900030658, 138.1288049634703, 138.12986925251516, 138.12510134503046, 138.12521052959892, 138.12301869921657, 138.12176580698835, 138.1320621285314, 138.11829131303045, 138.12684152482416, 138.12685825489245, 138.12446188842677, 138.13271516558808, 138.1171465764124, 138.12985180325137, 138.13399812539055, 138.12830835251597, 138.12388928820693, 138.13206918107937, 138.13451057222358, 138.12936290398224, 138.1394102715128, 138.13616624178255, 138.1381926448121, 138.1315928063781, 138.13481874687136, 138.12839472696174, 138.14270965319818, 138.13615652500312, 138.13897417985999, 138.1320721284136, 138.1372564343024, 138.13351321224496, 138.1328548212351, 138.13052467126676, 138.12724196277497, 138.1160398719517, 138.12621000478796, 138.13234437113658, 138.13506946251107, 138.1316955924585, 138.1353210173918, 138.1352314463184, 138.14101890619716, 138.1418438609902, 138.1364643239702, 138.14540926414085, 138.1379927104077, 138.14285714285714, 138.13169085842623, 138.1417104237068, 138.1442673569958, 138.14450214964884, 138.14314596814012, 138.14417190666737, 138.13236776734954, 138.14875418950868, 138.13847616968866, 138.14065212194285, 138.14242806886267, 138.13469712242926, 138.1401520466013, 138.14290836715497, 138.14669362425352, 138.1455484702495, 138.14764399538467, 138.15035804483614, 138.15003897926303, 138.1434756620494, 138.14582856786376, 138.13099260768757, 138.1395949775132, 138.13309552656347, 138.14603914065262, 138.12937677436798, 138.13610005980706, 138.13601377143988, 138.13109765612808, 138.1371917594423, 138.13198278598526, 138.13124394991308, 138.1285617614908, 138.13212419049205, 138.13049318249264, 138.13034628519074, 138.13298032967833, 138.14078911054526, 138.13229251831754, 138.12542770096084, 138.12733161835925, 138.1291348998042, 138.13011437023457, 138.1382947141451, 138.12834466884004, 138.13012083318148, 138.13642277946062, 138.1346210887292, 138.1354251222812, 138.12681457277543, 138.13318732995896, 138.13376395758246, 138.1324427203045, 138.13376634182364, 138.12979671646914, 138.1318605884739, 138.13966076665488, 138.1390336234959, 138.1400742404392, 138.13952956346319, 138.13925754952874, 138.14374610106051, 138.14026295404804, 138.1472751753214, 138.14964989161456, 138.14425985799087, 138.13917432003285, 138.1355896966799, 138.1392643871712, 138.1336968159752, 138.14294105416366, 138.14227354940644, 138.14170465591357, 138.13967824934375, 138.1384727348339, 138.13959702237378, 138.137217595625, 138.1335277180071, 138.14617180229686, 138.14880441733868, 138.14153695739225, 138.15039635478433, 138.14940926865796, 138.14291508712813, 138.13943207821927, 138.14703816436432, 138.15037316151597, 138.15332920360433, 138.14520050184024, 138.14714502116053, 138.1506562609008, 138.14974902107807, 138.15175739648052, 138.14779610522862, 138.13798527129362, 138.14978379786402, 138.14186274305484, 138.150181852288, 138.14260703734388, 138.1478221902633, 138.14981084095007, 138.1419320893112, 138.13275451690356, 138.1375876848086, 138.13579083306428, 138.13587703586452, 138.13561775056746, 138.13416348246173, 138.136420883902, 138.12293179878876, 138.1295045630977, 138.12448370215466, 138.12381264500556, 138.12078578635848, 138.11766143796288, 138.13000041605127, 138.12647952072888, 138.12823246163686, 138.13413232809046, 138.1334095752976, 138.140116330445, 138.13353711154778, 138.139991370751, 138.15154114485046, 138.15194394048876, 138.14942947001794, 138.15028748479398, 138.15459329048898, 138.15753656114666, 138.16691619101087, 138.15755001897315, 138.15913557013485, 138.16757051865332, 138.15755105436094, 138.16397115779515, 138.167151857936, 138.17839765449554, 138.1660367549583, 138.17131701940724, 138.17628250120882, 138.17939530723467, 138.18205080197217, 138.17702742062997, 138.17794793899165, 138.1729207526753, 138.18041912927663, 138.17688585995214, 138.17351441357062, 138.17460623058471, 138.17082563555465, 138.1693823792766, 138.16985994689438, 138.1674570659615, 138.16847486568656, 138.16718201788632, 138.1625850729792, 138.1649264962428, 138.1647175214788, 138.17554924183293, 138.17204961188688, 138.18250355100704, 138.18202347750073, 138.1823318833642, 138.1763359414017, 138.18015530001614, 138.17043894320784, 138.1737588283631, 138.15432137285492, 138.14968929565015, 138.1477749004191, 138.14296113349798, 138.1482985416071, 138.1467747301878, 138.14686445480874, 138.14678140599003, 138.15001091896053, 138.15088169851734, 138.15502586363755, 138.15324509233074, 138.1599436367796, 138.1695836193091, 138.16712503964192, 138.16599337627835, 138.16368305056554, 138.1632030356586, 138.17558112940785, 138.1752618583496, 138.17604150961054, 138.1763451929726, 138.1813620481677, 138.17949904582633, 138.17680675589946, 138.17937756142211, 138.17209798210942, 138.17640510806524, 138.17475601889421, 138.17365627764192, 138.17970172864176, 138.17417692527914, 138.17576480019156, 138.17226215072677, 138.17429573799163, 138.16066698239385, 138.16248354244618, 138.1676608990776, 138.16397530401466, 138.1615578870636, 138.1538097048149, 138.15033248108477, 138.1598798154532, 138.15673032865413, 138.14661667838266, 138.1586429557112, 138.15105715014604, 138.15637084727766, 138.161730496011, 138.16278246934007, 138.16827113211082, 138.17875763599088, 138.1742828161981, 138.18980496960938, 138.18859938748875, 138.19477304990355, 138.20134179321823, 138.20399970880956, 138.1983891347189, 138.20176460189873, 138.20265162346948, 138.20400384785378, 138.2061651421945, 138.20481088220308, 138.21320467295064, 138.19905269944263, 138.20236064891847, 138.20320591477238, 138.19308645056626, 138.1896218172741, 138.192420113173, 138.1957782296439, 138.192869882638, 138.19927726504613, 138.19362989767907, 138.19725822299162, 138.20567910606857, 138.1986282493279, 138.1944269676943, 138.20110444951717, 138.19012183897286, 138.1955832189359, 138.19882575639386, 138.19823641959903, 138.19705201861336, 138.1902986432869, 138.17933423128727, 138.17862065736978, 138.1879737582786, 138.19421446747396, 138.19231809997606, 138.18834183407932, 138.18922815857417, 138.19615937200683, 138.1973749290627, 138.1876893604173, 138.1903073470684, 138.19402930669972, 138.18661410762454, 138.18356931953696, 138.1906917387228, 138.18304950536313, 138.19568026679173, 138.18112936173762, 138.19652648916872, 138.19034412290625, 138.19202698334914, 138.1821741397289, 138.18182860956432, 138.18504478950496, 138.18241682612344, 138.1826644428229, 138.1862452834122, 138.18820311075217, 138.18658325693806, 138.18415309369905, 138.18863719210538, 138.1813448572098, 138.18718144949267, 138.18110453464098, 138.19196893349437, 138.1879655027039, 138.19640198640334, 138.19622904664513, 138.19644492548497, 138.1955040978275, 138.18402551920445, 138.19793943178271, 138.19609342886432, 138.19518324280452, 138.20109249817915, 138.1994964470385, 138.2027646413094, 138.21235645789866, 138.21420654125362, 138.20190441501677, 138.1966288627614, 138.1946601613499, 138.20835803817548, 138.1967897805587, 138.21007454728004, 138.20195294007482, 138.2018769085111, 138.20155623403846, 138.20324446339967, 138.20486295313881, 138.20608137980537, 138.2041341787559, 138.19180932465682, 138.19504379850605, 138.20336575976694, 138.19992716299882, 138.20713018228747, 138.20029461213738, 138.20081519192928, 138.18854822757794, 138.18406357500092, 138.18958660823034, 138.18949505465903, 138.18776035157876, 138.18578042569146, 138.1928104915574, 138.19492324441458, 138.19168134032114, 138.18810054817934, 138.19435382161953, 138.19258977392974, 138.19042580362682, 138.19286027065914, 138.1994682099007, 138.1982834587368, 138.20090231054084, 138.19880768588834, 138.19863428171982, 138.20287496609708, 138.19645455541126, 138.19552621010854, 138.19331066350958, 138.1901063940753, 138.19176725149248, 138.19429515682583, 138.1993059101852, 138.1973953585289, 138.19791465936137, 138.1899336023955, 138.19852715237306, 138.1951735199767, 138.19324738080854, 138.20606335124327, 138.20966172007974, 138.2022390623211, 138.20144663579123, 138.20402279409853, 138.20420567313147, 138.2042980539078, 138.20837365633358, 138.21342101019138, 138.2067795904778, 138.20784213757298, 138.2095479400028, 138.2070326926578, 138.2122086974615, 138.2003360435296, 138.2151603741196, 138.21197317559168, 138.21426490479658, 138.20917833941027, 138.20685297008848, 138.2020511967048, 138.20332355816225, 138.2075000779958, 138.20406030129848, 138.20922323281175, 138.2131059731453, 138.21641946287784, 138.20996187712265, 138.21219214064652, 138.22168533072573, 138.2173311415373, 138.21510505808237, 138.2159820583001, 138.2140801082685, 138.2080589665242, 138.21759861742996, 138.22260972765886, 138.21945975772908, 138.22135043811923, 138.22200579154602, 138.22816001833783, 138.2338978988992, 138.2357268261171, 138.22272708324647, 138.22350654291327, 138.22048812018474, 138.21671949286846, 138.22083420229407, 138.22653423014756, 138.23683373400988, 138.23339835600436, 138.22661555312158, 138.25265079406472, 138.2381002049576, 138.22213069026105, 138.22467206106234, 138.22236241820693, 138.22473550560275, 138.22018912973215, 138.2193222512393, 138.21251635162108, 138.2124499749875, 138.2156888286786, 138.21455329835513, 138.2087067061226, 138.21040182967172, 138.2143378025023, 138.22105948536304, 138.2096174476373, 138.21184128306604, 138.20403275769613, 138.19613344507545, 138.18960007494692, 138.1789550374688, 138.1775325925733, 138.1847494666736, 138.18253889810802, 138.17638552963513, 138.17560186437504, 138.17446578306735, 138.16652275233557, 138.1602742505189, 138.16656957693147, 138.18049429974204, 138.1923787036411, 138.20000104029043, 138.19486605981794, 138.19083381875674, 138.185062283827, 138.1822389565543, 138.1837526390781, 138.18156996942022, 138.17992208508227, 138.17931981422055, 138.18380306962567, 138.18363408430042, 138.1806794596366, 138.1935478836309, 138.18346399754452, 138.1820035474827, 138.18544858621854, 138.187592349795, 138.1881078886975, 138.1904005913094, 138.18720163259357, 138.18867305659828, 138.18410118093016, 138.18156634034577, 138.1805159234342, 138.18388865457612, 138.1793266852397, 138.17553792704715, 138.1803196699106, 138.18393152062353, 138.18605026780318, 138.19682782840678, 138.19514800360565, 138.1954964389357, 138.19233555151408, 138.19191118986814, 138.19242514252363, 138.18854876701477, 138.18998864121883, 138.19321414059326, 138.19966765467342, 138.1965183329253, 138.1915625, 138.18563715971032, 138.18318584070795, 138.18533264633786, 138.17622566878316, 138.18163651880684, 138.1829631325853, 138.18715239299297, 138.1845515892217, 138.17985297101563, 138.18119761289083, 138.17773523858074, 138.17413059534584, 138.1803752704277, 138.17834298848663, 138.17784248979487, 138.17970691932481, 138.18525606356866, 138.18587256176852, 138.181630466442, 138.17325213737442, 138.1756128508877, 138.17491732013227, 138.17997057248476, 138.17351650408702, 138.1822904478869, 138.17962290836863, 138.18026469747002, 138.19097565287933, 138.1852225510029, 138.19637657043015, 138.19168265755576, 138.19313070382987, 138.18795338606262, 138.19321390499468, 138.19489171815516, 138.2007322616379, 138.1961856120496, 138.19840729046922, 138.20994360158997, 138.20670957938938, 138.19919139149349, 138.2031428868769, 138.19125742770024, 138.18529329129336, 138.1826672910813, 138.19294000093677, 138.19831144562949, 138.19648629655657, 138.19643498586592, 138.19806521818361, 138.19349513905885, 138.19887931842564, 138.19786669999948, 138.19917496562357, 138.2017742170733, 138.20801946259078, 138.20627891468345, 138.2021942757119, 138.19932798499687, 138.20031672275297, 138.19814249549427, 138.2028240465848, 138.20871675493828, 138.20671505029262, 138.2035783818676, 138.20399975021076, 138.19996149984132, 138.19252719582556, 138.1996201873049, 138.19735623692944, 138.19474932636987, 138.18976017974816, 138.19307087760907, 138.19210664558443, 138.19902632359137, 138.20298839694814, 138.19924184515546, 138.20548472305995, 138.19823923703737, 138.20320477492746, 138.20575742293715, 138.20553963904473, 138.19992511583644, 138.20225986937893, 138.20479578145964, 138.20416673165812, 138.21057748800257, 138.20126534898472, 138.21112959401154, 138.20497026779773, 138.2072339009835, 138.21719191152386, 138.2123804076539, 138.2092590378046, 138.21145495863257, 138.20689350373846, 138.2163268277716, 138.20876949397564, 138.21614804104624, 138.2053657344076, 138.19843651664647, 138.20940842315534, 138.21265049584284, 138.21681655425098, 138.206589459987, 138.21257658014042, 138.21284845835154, 138.20894364804232, 138.20606237248617, 138.20544843096016, 138.209575631346, 138.2098046669548, 138.20649609682175, 138.20982831187231, 138.2134893510607, 138.2124181984911, 138.21589132745578, 138.2125687188974, 138.21816912197687, 138.21318386958922, 138.21006388943897, 138.21974580378222, 138.22639130570695, 138.22374671833978, 138.2175210537006, 138.2119301169058, 138.2134548294715, 138.22150083043937, 138.21698525737133, 138.2199310746934, 138.22659857464873, 138.23572250303224, 138.22041494035102, 138.22492152810673, 138.22266574377176, 138.21864657271914, 138.21712025810479, 138.22294488295498, 138.22018792532933, 138.2218268275299, 138.2216597821224, 138.2314063345403, 138.22381343764957, 138.21839516896654, 138.21391539481553, 138.2108675533187, 138.21015607940188, 138.20330558747224, 138.20232220760514, 138.19758940920767, 138.19854489856414, 138.2093503333091, 138.20361096810763, 138.20021839737922, 138.18366625419833, 138.18876399821156, 138.20373711273209, 138.20309883182674, 138.18709392150234, 138.18966181061396, 138.1734140136005, 138.15714687090264, 138.14913576906667, 138.162923219434, 138.16667967916388, 138.16191676124828, 138.16328454116092, 138.16610430725652, 138.17982547484172, 138.18743101688915, 138.19400878946928, 138.19378892337173, 138.19301534727973, 138.1908836656997, 138.1908832354044, 138.19006809171282, 138.1820137962654, 138.187350530665, 138.189999062119, 138.1895124099154, 138.1909067693703, 138.1939960912052, 138.19569624607175, 138.1893957947943, 138.18872338319343, 138.1890424661745, 138.1931776742829, 138.19522447767724, 138.18327718095992, 138.19615929350994, 138.19791959516448, 138.18485618478329, 138.2030490154221, 138.19728684389983, 138.20367527283514, 138.19570544805592, 138.20284358710242, 138.20128069746514, 138.20747708283474, 138.20756356295945, 138.20066590365207, 138.21292014129128, 138.20730191260384, 138.19459872690965, 138.20565029931402, 138.2019317289338, 138.20991243031867, 138.20443189676237, 138.215260300755, 138.21137014867935, 138.2199834606723, 138.21690111547363, 138.20223872061223, 138.212486872615, 138.20792177005137, 138.20840460209934, 138.21298963283385, 138.2192268089488, 138.2155371006911, 138.22357920130602, 138.21904068633822, 138.21465339739188, 138.2287161301393, 138.23030485807436, 138.2292467502744, 138.23091573261732, 138.228297359614, 138.22345138502064, 138.23186534566867, 138.22012588439253, 138.22968273305636, 138.2369662570298, 138.22734517422782, 138.22582090407548, 138.22328862767168, 138.23493272748115, 138.24078967255065, 138.23882129713613, 138.24150390523167, 138.2350925863157, 138.2345148436359, 138.23565566286308, 138.23364110379816, 138.24240953037233, 138.23218668086926, 138.24288191180466, 138.23777735990976, 138.2415241618207, 138.24074625695698, 138.24339708442008, 138.24120282513346, 138.24577272584676, 138.24397604539868, 138.2349297690356, 138.24385496782295, 138.24691383866664, 138.23985344150745, 138.2453747814342, 138.24236980080556, 138.24301753540348, 138.242447739299, 138.24642997510807, 138.23453212528364, 138.24253778271535, 138.24481667051003, 138.24677598607644, 138.24666467464525, 138.2448563338926, 138.2458114620423, 138.24767024149776, 138.24521792021477, 138.23907982087238, 138.24051608438538, 138.2456839379053, 138.24658194933735, 138.24499606815203, 138.25636683896536, 138.25644023192174, 138.2535235629262, 138.25034326621736, 138.25311520766303, 138.25628438204012, 138.25744374295968, 138.25261806847053, 138.25599170198387, 138.24235360672998, 138.2544251612126, 138.25978740904114, 138.24803423907633, 138.25102665102247, 138.25522418552995, 138.2563922612002, 138.24986904138294, 138.24888013370287, 138.2582984453678, 138.2533609262849, 138.25951943174138, 138.2614110056767, 138.26265826098793, 138.26505500489571, 138.26232134443225, 138.25730920666834, 138.25719641043364, 138.26470957811077, 138.26736503748378, 138.26362903479108, 138.26558696824242, 138.26623257664184, 138.2632645155887, 138.26488447324616, 138.26789630428297, 138.27539447860786, 138.27453822405943, 138.27436679554862, 138.27070265293204, 138.27228447960155, 138.26532064395624, 138.27321006257716, 138.27326131875603, 138.27157575440614, 138.26245699526294, 138.26283214059814, 138.26274800861367, 138.26295491126487, 138.2618597312491, 138.26419598318054, 138.25325068669125, 138.25280863681925, 138.25337307076012, 138.25600730688936, 138.24946774092552, 138.24592396266482, 138.24647321521735, 138.24870125805845, 138.2529448265433, 138.2517294769603, 138.25629275108443, 138.26146860729403, 138.25688326852307, 138.2611242560377, 138.25314068060672, 138.24676968926494, 138.24037675104321, 138.24852992494675, 138.2506652225306, 138.2517676951754, 138.24818536839365, 138.24738209671793, 138.25023168636434, 138.25004686621259, 138.24940249001548, 138.25554074320948, 138.25822642452516, 138.24964199980212, 138.25920795688288, 138.2556371400302, 138.25348665229302, 138.24915235699441, 138.25406258463718, 138.25085171332424, 138.25177225541313, 138.25045714315485, 138.24669004434116, 138.24498621828772, 138.2522796194208, 138.25240608830225, 138.25585697313295, 138.24747414219837, 138.24803014195484, 138.25023976815461, 138.23273997237354, 138.22222048450914, 138.222303328606, 138.2219910413049, 138.22381458998268, 138.22188556051566, 138.21480504036884, 138.22324273860002, 138.21813421236556, 138.23257803371723, 138.22662195077427, 138.2387181573512, 138.23631394475507, 138.2371844356353, 138.23928146710895, 138.24491467078363, 138.2427405688662, 138.2418487044471, 138.24681518702306, 138.25147107110655, 138.25316594227823, 138.25414684225063, 138.24055349976547, 138.240490036685, 138.24568826269552, 138.2393054187962, 138.2478261549122, 138.24639115644487, 138.2523782234957, 138.2403729943738, 138.24373805294985, 138.2447077203489, 138.24177666692702, 138.24807727355568, 138.24390231201832, 138.255907582852, 138.25708899454753, 138.254316359471, 138.2440593956307, 138.250869338886, 138.25746660975838, 138.26466653827535, 138.26469608312684, 138.257006012963, 138.2613028176347, 138.27580569584006, 138.2701803701101, 138.2675696356718, 138.26860745391411, 138.26959097511076, 138.26991134317947, 138.2715487619484, 138.27667803138746, 138.27868272139014, 138.28218757320977, 138.2922387267076, 138.28726284440927, 138.2827585488775, 138.28251249479385, 138.28834719951686, 138.289615779142, 138.2936085566398, 138.29270947814717, 138.2887776313253, 138.29473464815152, 138.29496818970503, 138.2839715898136, 138.3020243716838, 138.29944439232364, 138.2930928426211, 138.29880665022705, 138.2987154490194, 138.29873089035812, 138.29521524862454, 138.29632411623868, 138.2936484752376, 138.2933661625778, 138.30082950751253, 138.29050934981612, 138.2928773383134, 138.28444961474858, 138.2939574627917, 138.28970963316868, 138.28317984125826, 138.2924060467954, 138.28086255617774, 138.3015119128304, 138.29152743821385, 138.29234986917953, 138.29783851682745, 138.28689797492365, 138.2850443183417, 138.2881576753106, 138.28233694094595, 138.29460643601752, 138.28927600254218, 138.2888978022722, 138.27798033251386, 138.28412352019, 138.2828118164205, 138.27841370690555, 138.28605354845766, 138.28754452846698, 138.28121436196528, 138.28494570453893, 138.2851362118979, 138.28067526191913, 138.28232721593128, 138.29021710834593, 138.29044318661118, 138.29441357365675, 138.29004416942726, 138.29853295767606, 138.2906937394247, 138.29312481127852, 138.29096199592942, 138.2977178315235, 138.29122675496137, 138.298265619061, 138.2936848846472, 138.29658731150545, 138.2940560806061, 138.285488145884, 138.28790372137107, 138.29234302498165, 138.29085928834405, 138.30292676066608, 138.2949730971368, 138.2932799241576, 138.29322039196074, 138.28634313041124, 138.28909863732966, 138.288336910542, 138.2918012461189, 138.29247209862135, 138.286156443444, 138.30173006774362, 138.28752038939177, 138.29103104657767, 138.2919411666597, 138.2851305358511, 138.29023094844706, 138.29664016681872, 138.28891379130616, 138.29281148660627, 138.29180613340841, 138.29262812157864, 138.29686473636468, 138.27837195484253, 138.278925921294, 138.29033905015942, 138.29148930627557, 138.28451311758943, 138.28949424856214, 138.29048774897907, 138.29245307591725, 138.293160830638, 138.288887615754, 138.2983987748596, 138.2906873186915, 138.29316127150773, 138.28928852293382, 138.29206871592453, 138.29137024113328, 138.29194636115088, 138.29005936263277, 138.28276196030242, 138.28765996438872, 138.2820548857934, 138.28279078968603, 138.28700502010125, 138.28489452882948, 138.28620379001308, 138.28149116320728, 138.2854955869718, 138.29154538685438, 138.28574478277167, 138.28569643322052, 138.29380152162932, 138.29772920170583, 138.30015309948342, 138.29502444306772, 138.28475793857365, 138.28343648979975, 138.28351465306335, 138.28493789628212, 138.28543164624844, 138.2900380148935, 138.29393230807688, 138.28801933323263, 138.2926206795975, 138.29189436997598, 138.28437685599076, 138.301574565197, 138.29380403683496, 138.29245553418903, 138.30133016428988, 138.2877342019544, 138.29616948092558, 138.2953444017134, 138.29742435139727, 138.29875172647434, 138.29732364409784, 138.29702015410118, 138.29709056780854, 138.29310057147626, 138.29636756147926, 138.2945636586447, 138.29865605557265, 138.2920790530323, 138.2995848804706, 138.304293238449, 138.3056497616629, 138.29986404621388, 138.30924065073685, 138.31623023561028, 138.31675103639355, 138.31440342936315, 138.30737384783626, 138.3063584718006, 138.3131216347105, 138.3138267952751, 138.32164415810334, 138.31435251723636, 138.3265818302995, 138.32477119623502, 138.31950784092268, 138.31806966769383, 138.3189404745791, 138.31672653443698, 138.32276922596398, 138.32268526954212, 138.31848824800227, 138.31640726667013, 138.31379243937604, 138.32536567591484, 138.3229747385626, 138.32143935686094, 138.31471520882255, 138.3163002842891, 138.3138162450344, 138.31441927776072, 138.30763384211733, 138.31442791767972, 138.32342464326632, 138.31044306599375, 138.31655796799467, 138.3105871566324, 138.31420085971084, 138.31435910528484, 138.31000109426864, 138.30822788768214, 138.31519943294646, 138.312801372041, 138.314045837353, 138.31574033993417, 138.31896452820743, 138.32016080255283, 138.31641920213542, 138.32014701665668, 138.31563717132533, 138.32758584720656, 138.32138516667797, 138.3284151323375, 138.32678180110614, 138.3262101276125, 138.32355089095688, 138.3338566659712, 138.3372183979975, 138.32241477317174, 138.32231185178617, 138.3313674879416, 138.32522991262277, 138.32383603344383, 138.3173974451851, 138.3181673726054, 138.32343686508227, 138.3236630166387, 138.32623961990893, 138.3278637287076, 138.3332864517406, 138.32426266056862, 138.3211607366053, 138.3217694691072, 138.33056336561492, 138.32700148402716, 138.3330869107985, 138.3350428507461, 138.33980638139428, 138.33456215439406, 138.33932700118729, 138.3373852745342, 138.34384582146816, 138.33645506887254, 138.3507819332806, 138.3374234086969, 138.34668283947275, 138.3348967714396, 138.34460556723783, 138.35020066941863, 138.341824996096, 138.34320650900818, 138.33455137915058, 138.3412705436486, 138.35175149536943, 138.35382941167282, 138.3447283214126, 138.3478833499917, 138.35024807242777, 138.33964258012796, 138.33526468949935, 138.35042356775784, 138.33930551867414, 138.34747082319979, 138.33889759842498, 138.33847997082876, 138.34409475888364, 138.33298948662645, 138.34084881327672, 138.3431966230653, 138.34857005853198, 138.34539000437854, 138.34634174317907, 138.35378317776505, 138.35063614558348, 138.35044794176235, 138.34622945007274, 138.34618493582892, 138.3423552177927, 138.34246625357284, 138.34761492394048, 138.34938074519258, 138.35271530158133, 138.35101203800818, 138.35407285269272, 138.35435560796918, 138.36427393600368, 138.35985933497165, 138.36205646192133, 138.36032952642316, 138.3670271877788, 138.3641187519566, 138.36661241013763, 138.36428031192133, 138.3665846205192, 138.3622201599533, 138.3580476667084, 138.35235896259852, 138.35959969768837, 138.35735169193407, 138.36223771850277, 138.37021768927292, 138.35375684590653, 138.35519686557288, 138.36580651547595, 138.36143712200536, 138.3584561695922, 138.3718014822685, 138.36283715867486, 138.36705063844855, 138.380671905677, 138.371047628968, 138.38570863148246, 138.37550242622405, 138.37487048385668, 138.3723121287992, 138.37258381821778, 138.36846269153898, 138.3690562934588, 138.36997574407394, 138.37659985322207, 138.37231124735223, 138.36508547786943, 138.37347710914852, 138.36981410936946, 138.37007587190243, 138.37463638019412, 138.37310760807907, 138.38187609624583, 138.38525801850946, 138.3881314446412, 138.3840147924371, 138.39305954911032, 138.38582792013293, 138.3828235686307, 138.3826915463316, 138.38129027888488, 138.38650469802855, 138.38914543635076, 138.39231069985664, 138.38806491468608, 138.39275138674563, 138.3907730166261, 138.3986077071492, 138.39007132875884, 138.38691041056177, 138.38830131213885, 138.4005748055728, 138.39199044320173, 138.38383717168765, 138.38535572060104, 138.38897791511596, 138.3862085884447, 138.38806499939972, 138.383896421079, 138.38676350885981, 138.3835360540171, 138.37286092908718, 138.37659051663422, 138.38499214972381, 138.3789558777511, 138.3766193128481, 138.37974393074134, 138.37620127753877, 138.38107404877488, 138.38550215335204, 138.38130040191209, 138.39241278296996, 138.3941491330022, 138.39924857870903, 138.38735659730546, 138.4004938837602, 138.39921868896008, 138.3962155067346, 138.3954597769989, 138.38939481508095, 138.39012161852602, 138.38870924910572, 138.39264161455432, 138.39360173286403, 138.3945560872984, 138.3904553620245, 138.38925513966132, 138.38813244260697, 138.3881601216483, 138.38671789585482, 138.38533695640857, 138.38614464416784, 138.38751171264965, 138.3896292517361, 138.3840519732013, 138.3966803596624, 138.38752869763496, 138.3883466845724, 138.38307494548616, 138.39034852546916, 138.38164724011017, 138.38441630127997, 138.3799830232207, 138.3901881328389, 138.37983143375075, 138.38046043480298, 138.38983545398654, 138.39551585398902, 138.39624726362973, 138.3897645182475, 138.39458842416911, 138.3944239100402, 138.38925908545806, 138.4026487509976, 138.3942588024221, 138.3901262509061, 138.3955957427947, 138.40044113966295, 138.39526648204068, 138.38923370608362, 138.38622754491018, 138.39251249308836, 138.39001512859303, 138.39357406673207, 138.39336806805085, 138.40269947481238, 138.3955780361892, 138.39256234976352, 138.39543115717257, 138.3953338025599, 138.3885918003565, 138.39133448692823, 138.39531962577854, 138.4017073081754, 138.40115476209087, 138.40709804493724, 138.404633550531, 138.406758122142, 138.4019547603674, 138.4049813576621, 138.40326217718038, 138.40763671203774, 138.41097709589727, 138.41395329458575, 138.41457584752382, 138.42205681664288, 138.41589459156836, 138.410798537698, 138.42308914129185, 138.4179915947569, 138.4215279332955, 138.41950231451347, 138.42219780334236, 138.41737264968836, 138.4227623227795, 138.4224214686265, 138.4284814344322, 138.43861676871174, 138.42947439668862, 138.4335709859023, 138.42480198715845, 138.42589467983169, 138.42271112638937, 138.4125285841533, 138.41418404243126, 138.41375626634982, 138.40892247557002, 138.41407719685878, 138.4064135170631, 138.4146357988659, 138.4211961054124, 138.41679179962043, 138.4168839159089, 138.4182862029587, 138.41551297092948, 138.4164950173909, 138.41902462427385, 138.4093426652203, 138.41902963863086, 138.41222062850437, 138.40958387455203, 138.41724787296752, 138.40976370722444, 138.4154301277235, 138.4136196677519, 138.41676969706455, 138.41389509045007, 138.41484784479388, 138.4072077051839, 138.41977214067836, 138.41864781448115, 138.4190722966315, 138.42295461417353, 138.416535482324, 138.41722696521458, 138.41601488205347, 138.40798033302605, 138.41343339548158, 138.41941128679457, 138.4156784317402, 138.42160931991103, 138.41869245510978, 138.42361776592642, 138.4243644299532, 138.42814581781627, 138.42232964193812, 138.41749261722595, 138.42506549445054, 138.4221575285393, 138.4300496818073, 138.42033128687402, 138.430804885035, 138.41731369087606, 138.42113731391467, 138.4325309233268, 138.42562228676724, 138.42270853287803, 138.42158501095858, 138.42512937452494, 138.41844736019993, 138.41988150647134, 138.41931032327946, 138.42060148418173, 138.42755646303857, 138.41862112797858, 138.41840982385213, 138.42279095697845, 138.42018269265841, 138.4210199880124, 138.42269099855613, 138.41947961901982, 138.4152816299293, 138.4180448383733, 138.41313675298338, 138.42066024357692, 138.4070944096594, 138.4130154807156, 138.41599073605585, 138.42038512304424, 138.4106119893567, 138.41356066613798, 138.4084597442039, 138.41761310257, 138.4167371311056, 138.42204463838317, 138.41925768955744, 138.42820681448077, 138.41706081962934, 138.43457695078786, 138.42563789295616, 138.42363547147747, 138.41362447876168, 138.41476982163917, 138.42473373583883, 138.42546141443026, 138.4248844174955, 138.4315613161767, 138.42905148033353, 138.43908179133138, 138.43151649865382, 138.43926184476203, 138.43820459181276, 138.42877261797338, 138.42846563054135, 138.42033755098208, 138.42086871257797, 138.42391786122135, 138.41090947017105, 138.41393709695075, 138.41574357397164, 138.40996669776266, 138.41675004690137, 138.41685511520546, 138.42776003209855, 138.42841066572194, 138.43617592057217, 138.44728727393948, 138.44610664597016, 138.43784797270905, 138.4319373772831, 138.40940527028437, 138.41892659045337, 138.43181972053975, 138.4273424155314, 138.42006457324376, 138.42895392084344, 138.4188682390199, 138.41981011702333, 138.4027555754581, 138.4102512039568, 138.4180120052269, 138.41880662293033, 138.41584349175437, 138.41851080447802, 138.4120704290632, 138.41544799283378, 138.42171711910663, 138.41628464263388, 138.41597895175576, 138.40840865873037, 138.406471446436, 138.4068901546142, 138.40659403669724, 138.41087534539386, 138.4142077870605, 138.4093905135372, 138.40911342506897, 138.40532959326788, 138.40473645516687, 138.40479678823743, 138.40576399536877, 138.41183159717693, 138.40943900174236, 138.41088644046576, 138.41141944874863, 138.41253013053958, 138.4181316301665, 138.40609981997963, 138.40242438790207, 138.40532275739707, 138.40411963323052, 138.41015551612568, 138.40993137280483, 138.40544841692235, 138.40764045412806, 138.41004131714035, 138.403937521187, 138.40633718716919, 138.41102854908095, 138.41161566133152, 138.40593465932784, 138.41280678803545, 138.41067957623542, 138.39995414565007, 138.41010249435942, 138.39977908152102, 138.40858366415554, 138.4105727055833, 138.41249179610588, 138.41399714556573, 138.41265301870084, 138.40536570883918, 138.41335145889977, 138.41000026042343, 138.40887356369734, 138.40425055345747, 138.395021408257, 138.40200311456712, 138.3994563377788, 138.39377909216816, 138.39863682752588, 138.3994854488261, 138.39559626911918, 138.40947063602843, 138.40013748281467, 138.39541096639465, 138.3933691989605, 138.3894293362219, 138.39530838220435, 138.3870268919116, 138.39533345485793, 138.39303013573058, 138.39109875115875, 138.38667382063676, 138.38793256155634, 138.38890278342245, 138.39528072790188, 138.3805965093312, 138.38987954068043, 138.38324723593468, 138.39081442702278, 138.39460414961127, 138.39351649039364, 138.38821118070732, 138.39316399830977, 138.40359242700112, 138.39712611592583, 138.39592409593922, 138.3984628549365, 138.40139757225313, 138.38984174374178, 138.39586324268734, 138.39485267626372, 138.40125838707152, 138.3933938324335, 138.40272650853404, 138.39109440659828, 138.38767467231813, 138.3970266588018, 138.39176888146562, 138.38686782763892, 138.3933445006288, 138.39945318981304, 138.401627543036, 138.40341801000267, 138.41144016311802, 138.40973938616526, 138.3934891189873, 138.40408495198773, 138.40301657867442, 138.40321874543974, 138.4036197633031, 138.4052637338016, 138.39496061022882, 138.39616871411752, 138.3865921380273, 138.3935595091769, 138.38657055355318, 138.36406204425185, 138.34707941369504, 138.3521910358192, 138.34580724473105, 138.34643733363893, 138.33421199318605, 138.33813425566606, 138.3277903924673, 138.33620855796025, 138.3236807566509, 138.32130151934206, 138.32855498314902, 138.32816708430798, 138.32834895833332, 138.3249359388346, 138.33280734097843, 138.3283289069416, 138.32285601191654, 138.31962752133992, 138.32649595799649, 138.33008141091418, 138.32980131070337, 138.33278803824012, 138.33754174981894, 138.3410953693524, 138.32924859587152, 138.3253954195928, 138.33213135597634, 138.33707689501523, 138.3211270248296, 138.33053379001862, 138.3339659532313, 138.32978274130733, 138.32485832998816, 138.32575453450605, 138.32889482080853, 138.3256043130957, 138.33247969790693, 138.33429645816926, 138.3339697543519, 138.34675854442264, 138.34630271037202, 138.36003380599118, 138.3719155285206, 138.37546491671927, 138.38437262000397, 138.38858865751368, 138.3809926148454, 138.38997167995745, 138.38390086420463, 138.38544768142165, 138.38614950649406, 138.3832767690038, 138.37709737447028, 138.3763492981825, 138.37236027434383, 138.38250958892687, 138.382571078623, 138.38146376539737, 138.38032110306878, 138.39587946872868, 138.3894478514821, 138.38868714865504, 138.39125768469313, 138.39095507754502, 138.39685458580345, 138.39033728350046, 138.39263222049163, 138.39384799708287, 138.38784981015328, 138.3907957374556, 138.38275790241107, 138.38809863481583, 138.38236702903077, 138.3793099857874, 138.37721919676792, 138.38121644771442, 138.38305859566182, 138.3830649150486, 138.38564532004312, 138.38673374266358, 138.38732860126132, 138.38956703779698, 138.38751139233912, 138.38557366803812, 138.39315789747783, 138.39875316396362, 138.38953827561778, 138.38885791259125, 138.38668528669987, 138.39373348826786, 138.3789314074908, 138.3820715886, 138.38161721021856, 138.38924596658586, 138.39557254057547, 138.40169857357358, 138.3948360258355, 138.3915836009509, 138.38828430938017, 138.39326985252706, 138.39355427498631, 138.38845862995123, 138.3904708748246, 138.3905506635506, 138.38468120183853, 138.37385274428263, 138.38331602594542, 138.38539258408787, 138.39180078067923, 138.39221702174288, 138.39193743609007, 138.39218345714048, 138.39505554686278, 138.40204346669586, 138.39472325512264, 138.3932779944522, 138.39723884799068, 138.3915411760413, 138.39826639006745, 138.4002908401005, 138.39422731134263, 138.39896394659218, 138.40390928703192]
[163.26216667439596, 163.26271536231883, 163.2690303075268, 163.2693281402142, 163.275361243531, 163.27302530905988, 163.27069007887013, 163.27281916694102, 163.27778962792596, 163.2673646530779, 163.27069760971878, 163.27313273679817, 163.27687921563174, 163.27176815248833, 163.27022880240298, 163.2766618155526, 163.27810351940005, 163.2793834118127, 163.27262826157482, 163.27264722375415, 163.27709882979957, 163.27556282461742, 163.28591420720207, 163.27739603845708, 163.28397327179545, 163.27978758404655, 163.28985923585176, 163.28906195707063, 163.27826936975336, 163.2789710902867, 163.2894455228133, 163.28774992124815, 163.28554289420046, 163.28133742149436, 163.297080704485, 163.28031846897753, 163.29459985179696, 163.29123713727344, 163.2930830835931, 163.27735958309205, 163.29445005419325, 163.2819660134594, 163.29000690073593, 163.2856560698326, 163.27985646486863, 163.28482864630115, 163.28708153910264, 163.27395604700914, 163.2772370297653, 163.27821408064605, 163.26903362920365, 163.28570436521716, 163.27764068612697, 163.27568118156356, 163.27718742620604, 163.2802900510275, 163.27961659566589, 163.28102093452924, 163.28673770393112, 163.27377424194714, 163.28499451238994, 163.29275680482417, 163.29850047945746, 163.28789984802995, 163.30220768147103, 163.304737100646, 163.31095899299248, 163.30889700497778, 163.31518267327422, 163.31447354390647, 163.32004413762408, 163.32383897770688, 163.31424954674657, 163.31262521332638, 163.31844008144674, 163.31844368372714, 163.32809752884256, 163.32156806353154, 163.3218400935169, 163.33099832993136, 163.32671659381757, 163.31952119145382, 163.3252949992808, 163.31845413497547, 163.3134342210899, 163.30525973875316, 163.3122041982962, 163.31824026067463, 163.3171780194885, 163.3222735395827, 163.3270749979113, 163.31983273928864, 163.32446820854858, 163.3318156502367, 163.3221117701111, 163.32816422363592, 163.32421307618415, 163.3170688703189, 163.32120587907806, 163.33438958532446, 163.3306376028878, 163.33439893841606, 163.3318330301793, 163.33538885563553, 163.3302911918637, 163.33209611342832, 163.3234150731576, 163.33608435858895, 163.33768571044246, 163.3306243244873, 163.33767378426396, 163.32746736922178, 163.326359289269, 163.3277062279998, 163.3307531409861, 163.33018776055312, 163.3370722953579, 163.3355527632366, 163.3352126520185, 163.32965382315172, 163.33432694670182, 163.34347620504548, 163.34441070807742, 163.33846389143793, 163.34435612819502, 163.3456197918115, 163.34365847328812, 163.34550619068804, 163.34895768173962, 163.3434015774303, 163.34693366824388, 163.35544011196276, 163.3526969608511, 163.3534552666577, 163.35195903519545, 163.35390753888075, 163.34978012761403, 163.34818747915045, 163.3544338398814, 163.35739833029103, 163.35104810877166, 163.35179282868526, 163.35471154469735, 163.35880083193211, 163.35100175063218, 163.36245508094692, 163.3599814750492, 163.35841078863157, 163.3587840340804, 163.36087071276756, 163.3540551552979, 163.3516674847421, 163.35582938564198, 163.35803561091944, 163.3564605375871, 163.35702645394863, 163.36118711947591, 163.35465396225717, 163.35997147897268, 163.359687015302, 163.35269336888692, 163.36353030499436, 163.36293312964378, 163.3638459401907, 163.36382572952155, 163.36933780168306, 163.37321488915532, 163.36726351945634, 163.3711898148148, 163.3704543771293, 163.37405113678443, 163.36347900139774, 163.36761575059705, 163.370702783268, 163.36612345587588, 163.3754790690785, 163.3669368089272, 163.36755700989082, 163.36151631833243, 163.3673502445978, 163.37803071681836, 163.37434392616797, 163.3718067995094, 163.3680843578729, 163.35863914337693, 163.3752824074074, 163.36528393072896, 163.37078037826703, 163.38637942372347, 163.37918194953875, 163.37663637121653, 163.37756487173905, 163.37906255936025, 163.38333217520207, 163.379815621236, 163.37808137945734, 163.38783964117582, 163.382379650651, 163.38331688375476, 163.38868368732534, 163.3862456667223, 163.38118123592278, 163.39268301725895, 163.3936128299613, 163.4040803460089, 163.40242839525632, 163.40427928972136, 163.41134222337624, 163.4104166859877, 163.4031239275412, 163.41111595506868, 163.405758518814, 163.41158545069993, 163.40977195977288, 163.410718013183, 163.4163403907888, 163.39993321150618, 163.4103107606679, 163.41503465038824, 163.4054890210303, 163.40751202452677, 163.40652593307115, 163.41386363636363, 163.4039206229218, 163.395691725628, 163.40136202644314, 163.4016114899792, 163.40535941955076, 163.39854887688637, 163.3950334518715, 163.40339944918907, 163.4096567070768, 163.40525003013528, 163.40739367078044, 163.40453439043048, 163.41443546555024, 163.407932983167, 163.41551927160114, 163.41961578757056, 163.4153566577504, 163.40815352168167, 163.39748705755852, 163.40479578734627, 163.39950683890225, 163.39467060955656, 163.3925555874802, 163.3935676715249, 163.40008990888614, 163.3953985171455, 163.39990454079953, 163.3954000296593, 163.39826577004538, 163.39157352314223, 163.39699912883913, 163.40190731275572, 163.39406771808225, 163.39895842503486, 163.40167177899897, 163.3999759017161, 163.38441505481978, 163.39790248355956, 163.39112908830603, 163.39840521155736, 163.40172001556908, 163.40453738757316, 163.39517089560886, 163.40493803127637, 163.40173439875414, 163.4040050990845, 163.40906751725834, 163.39327535533158, 163.39671854499596, 163.40355424088722, 163.39153880751343, 163.38892289429268, 163.39717292200956, 163.3934723523464, 163.40379985806194, 163.40146093731883, 163.40311936221426, 163.40594316563778, 163.40737373784225, 163.40492314257355, 163.40933125539198, 163.40152871441424, 163.39859747415485, 163.40362113503662, 163.40365857617937, 163.40930381390515, 163.40109439124487, 163.40192450380263, 163.4078418277191, 163.39691814012588, 163.39198683020703, 163.38751321573648, 163.39237906235942, 163.40308611064745, 163.40335600654694, 163.39349993045573, 163.4007418569607, 163.4016765889575, 163.39583391285802, 163.39732219435416, 163.40897626112758, 163.4158811993194, 163.4115650831475, 163.4028713279776, 163.41281915781275, 163.39938259874015, 163.41186969482035, 163.40140721033066, 163.4084464610978, 163.4114969804552, 163.4089352175868, 163.40185924082544, 163.40979899730328, 163.4051549592042, 163.40607295888825, 163.3999601619463, 163.4062434857532, 163.39202426993356, 163.41114517817277, 163.39988607893895, 163.40563634679512, 163.40049826117962, 163.39684127182565, 163.4024225362547, 163.40103918236167, 163.39363628364893, 163.3906130631861, 163.3750514977156, 163.38719069087136, 163.37896373632475, 163.37968134680258, 163.38152506374098, 163.37692994591293, 163.37378270222757, 163.37767126393177, 163.3839321237243, 163.37571476156108, 163.37604026442028, 163.3818696569335, 163.38534371906712, 163.38707692877, 163.38696128814408, 163.38681401028754, 163.3926582419006, 163.40034977976828, 163.38967744323332, 163.4017841857108, 163.39209099154127, 163.39316634815162, 163.39893641639898, 163.39174522953317, 163.3987688035177, 163.39739268915966, 163.39972406002155, 163.4020798992462, 163.40043338148683, 163.40815494959878, 163.3988710454175, 163.40193572288598, 163.39994442900806, 163.39520300842412, 163.4096222605087, 163.40378380881808, 163.41121629507498, 163.40807640114306, 163.40338532377834, 163.40712614386655, 163.40711310447722, 163.3870335535643, 163.39222536255386, 163.39508592450505, 163.39924748970165, 163.3933786558041, 163.38962218679325, 163.40404822270324, 163.39070993933606, 163.39874485520414, 163.39557333061455, 163.40059509464044, 163.40053388451966, 163.3955634024727, 163.39451700636147, 163.39347536000892, 163.38808390752934, 163.38920451912472, 163.3829909495762, 163.39472208447077, 163.38888914634202, 163.3877533999027, 163.39187511005255, 163.3868426783555, 163.38874110188343, 163.39507391445386, 163.38758166906072, 163.38853621240906, 163.39931596679935, 163.3890541730386, 163.38172087850987, 163.38470983435653, 163.3859375217164, 163.3895223577707, 163.38895606610237, 163.38690845742562, 163.38527111671175, 163.39351560183812, 163.394581299043, 163.38663368400572, 163.38596889492192, 163.3877424316836, 163.3820154449813, 163.3786334011182, 163.38252487446962, 163.3687016536199, 163.3749571517246, 163.3702545717303, 163.3624910257301, 163.37374645068948, 163.35972632690687, 163.35594327213443, 163.35243331372538, 163.34924509077436, 163.3528303022725, 163.36933949593842, 163.35514732781652, 163.35189378678632, 163.35738101191964, 163.35954671124838, 163.3531242330081, 163.35356631828517, 163.35062553825924, 163.36293089477948, 163.36790124600063, 163.36481243112596, 163.3733370378088, 163.3671617047091, 163.36821025239735, 163.3642512569328, 163.3673759456281, 163.38250123853487, 163.37438136287668, 163.37603981020715, 163.37802219167048, 163.3906500263862, 163.3755496921724, 163.37755286212115, 163.3777966987964, 163.37606849473562, 163.37732138146782, 163.36505498470976, 163.36547464840856, 163.35477886750553, 163.3571491364034, 163.35135747862455, 163.36689848554258, 163.3564663807422, 163.35133822202687, 163.35254464698806, 163.35249432109958, 163.34718091282085, 163.35377526520077, 163.35251385791358, 163.34408144377605, 163.35106486343932, 163.3547533215173, 163.35811686508302, 163.364682626026, 163.35810357200734, 163.35769326948903, 163.3604514384158, 163.36343846973276, 163.37077095531015, 163.37773845205945, 163.36941064207264, 163.36441471076063, 163.36808084739636, 163.36036862516158, 163.36608905156837, 163.36278375785994, 163.36840690783225, 163.36394598802616, 163.35566255456794, 163.36247949357232, 163.35671349186856, 163.35789839621765, 163.35431220303627, 163.35229795814308, 163.35086743514515, 163.3583918191005, 163.3550757221066, 163.35900705208155, 163.36621285751383, 163.3614886326225, 163.36506663204457, 163.3753825607924, 163.3613943330876, 163.36664425640433, 163.37363753112064, 163.38600501708686, 163.37272693552424, 163.3735993212764, 163.3768834203377, 163.38637754534327, 163.37872052436157, 163.39188437505794, 163.3874556706766, 163.38741261334766, 163.40247085274552, 163.39173021207554, 163.39419479562176, 163.39083209323672, 163.39317566565305, 163.39094242026763, 163.39179524734303, 163.389457729407, 163.3872168427298, 163.38279490150637, 163.3863341428598, 163.3949260081477, 163.3927644627333, 163.38824630669706, 163.39457355360412, 163.38229597227112, 163.37896795058913, 163.38450881728798, 163.37845814549348, 163.37939324874577, 163.3857093225246, 163.38003038612612, 163.3810908956164, 163.3891393072394, 163.37662987340832, 163.37540991199631, 163.38020490778223, 163.37991636449522, 163.37597766139226, 163.38203584494974, 163.38443049991895, 163.3747649788365, 163.382551920539, 163.3809612009687, 163.37519968513416, 163.38273371301568, 163.38326372618926, 163.3727044205673, 163.3828864280291, 163.37065980259624, 163.37688318903653, 163.3758720782197, 163.37498437680824, 163.3675718457971, 163.37652721214366, 163.3687718405036, 163.372555372972, 163.3624531358482, 163.35440941019687, 163.36324519397598, 163.35923664122137, 163.35128445926878, 163.35446621884194, 163.3464692957095, 163.34936281425632, 163.351218451632, 163.3582728887573, 163.34807468127232, 163.35555380793554, 163.3459140153022, 163.35401746886507, 163.3491495158925, 163.3561577927155, 163.35385013971907, 163.3730271468298, 163.36414743388053, 163.37802609661298, 163.36782444143188, 163.36998621353294, 163.36568507252076, 163.3631063648646, 163.3668548685672, 163.3668937241437, 163.37123789159946, 163.37790059851966, 163.37812053011402, 163.3759779277653, 163.37966216247494, 163.38746255388307, 163.3790390546135, 163.38054703926346, 163.37937453979634, 163.38197277808908, 163.38453452132313, 163.38049171293744, 163.3650665011855, 163.38045038952856, 163.38071305822027, 163.3797355195813, 163.37217564500438, 163.37290106214942, 163.3745384975286, 163.38780010934127, 163.38338985249425, 163.38545146240554, 163.38520340796953, 163.38315488076648, 163.3819255895844, 163.38559538043728, 163.3959192563278, 163.38881140913787, 163.39489961867608, 163.39339749857504, 163.40118178658324, 163.39813231375277, 163.40048752908027, 163.4020456114821, 163.40483539094652, 163.40124283470112, 163.39924553484533, 163.40482910439115, 163.40471490008528, 163.40245315193417, 163.40704220783735, 163.4009350904508, 163.39656610593633, 163.39877835142326, 163.3974134415777, 163.40501244075006, 163.41190316228426, 163.4052735460914, 163.41511794387065, 163.41377041584616, 163.4184018607582, 163.41534555764542, 163.41358796875434, 163.4110004772341, 163.41630294774492, 163.4158708977941, 163.41223672871823, 163.40976240219763, 163.41037366506822, 163.40295976425674, 163.41230923192396, 163.4055318754633, 163.41338330954983, 163.40989970583465, 163.42247034840622, 163.41280055594163, 163.41190258907022, 163.41601930729072, 163.41523461021816, 163.42066352291573, 163.40356573778996, 163.41244290862602, 163.40948988619363, 163.41508175459722, 163.40899953682262, 163.40444957060672, 163.4055108080944, 163.40440893828875, 163.41122153170758, 163.40477502465768, 163.40742575862117, 163.4141993202256, 163.4044271556914, 163.4148373531918, 163.40731153917392, 163.4113384207894, 163.41013709666217, 163.4124414895341, 163.40791252337831, 163.4038550558261, 163.40216983795642, 163.40758844467896, 163.41484550399258, 163.4115803846243, 163.40922639710442, 163.4116642445224, 163.41193649912063, 163.40895482330512, 163.4217144020695, 163.41905630081396, 163.41803688247757, 163.42355896681426, 163.42334912206044, 163.41045611373707, 163.40504379676818, 163.40581566909793, 163.41018501387603, 163.40183605041045, 163.39347779843328, 163.39975949864717, 163.39848772140775, 163.3983249937569, 163.40398756833252, 163.40316203705845, 163.39794323551988, 163.40308066514993, 163.39763677565554, 163.40618179127668, 163.41658149934565, 163.419132268477, 163.41898459646055, 163.42353528767046, 163.42225490604173, 163.4319916371407, 163.43416378337375, 163.42967940654137, 163.43750751611918, 163.43828868001333, 163.43971427778342, 163.44075465413226, 163.4406301325499, 163.44654754413887, 163.4452361233847, 163.4462008329477, 163.44356570349666, 163.4430802125178, 163.4522331903314, 163.44439610485784, 163.45684355731666, 163.44150494536265, 163.44706219971673, 163.45503022672358, 163.45137310627976, 163.43907316034546, 163.45005531152654, 163.45228396318996, 163.45048753159926, 163.4483243974035, 163.44840246494033, 163.4506630734752, 163.44587405723493, 163.44510958637738, 163.448148611169, 163.4597186463909, 163.46659041126975, 163.46303534380556, 163.45908926735754, 163.47277484486432, 163.46498853715582, 163.46890978140053, 163.463676569338, 163.46399659139328, 163.4723499849464, 163.46352332950377, 163.46329010706955, 163.4678390213387, 163.46035886198223, 163.46802962441467, 163.47851150127792, 163.45835995148553, 163.4662539473806, 163.4699069679134, 163.4573173272346, 163.4612368471, 163.4617756113819, 163.46354301692529, 163.46550566843038, 163.46911619680816, 163.47419844783195, 163.47981348484217, 163.48251356506603, 163.48004887689595, 163.4834680722083, 163.4967630277144, 163.48734880105135, 163.49491018795288, 163.49304559461785, 163.50409498514702, 163.50824974089429, 163.49986582646272, 163.50450442113447, 163.50987161805676, 163.5052310596771, 163.51207863608596, 163.50022678885495, 163.50006016457323, 163.51047986634643, 163.5017602620269, 163.49685918607125, 163.48836015063333, 163.49249359039624, 163.4971258782039, 163.49682295065276, 163.50872223533605, 163.5046009572213, 163.50637693101805, 163.5140855829371, 163.51924065285334, 163.51312298895806, 163.5055720430207, 163.49630730620882, 163.50480388570688, 163.50072452697418, 163.50270387895512, 163.4969562862526, 163.49875467575274, 163.49309030976707, 163.50221763365988, 163.50933917359657, 163.50645454040338, 163.50581147662444, 163.51496753637684, 163.51785598518174, 163.51875795957116, 163.51583846616958, 163.51036277828982, 163.51954140127387, 163.51082309235179, 163.5081131909414, 163.50937637496236, 163.5022348412915, 163.5126944937257, 163.51364958500073, 163.51587176613344, 163.51012818850378, 163.52382452255998, 163.517555236463, 163.50791334917392, 163.5185413347167, 163.51432701261518, 163.5094894772447, 163.51780425744914, 163.51540907026535, 163.50521139880524, 163.50734592104408, 163.49664463744475, 163.50710355664535, 163.50262132006992, 163.51190338209045, 163.50550556119634, 163.50823062441458, 163.50901865865418, 163.50385530214163, 163.49990031112202, 163.50026663204315, 163.49450574925817, 163.49966608850508, 163.49210044285746, 163.50074436853893, 163.50324669301125, 163.50608791647147, 163.49783178350302, 163.50700220340948, 163.49941564404375, 163.5008163265306, 163.50129409909368, 163.50372727567924, 163.50643645422116, 163.50575725804208, 163.51132040456528, 163.5100221787103, 163.51758777648374, 163.5161454997726, 163.50899454201166, 163.513692399094, 163.52585578685975, 163.5292416527023, 163.53408442073894, 163.53253347566778, 163.5283249173876, 163.53331074400882, 163.52942159424796, 163.53029339841956, 163.53244794639417, 163.53557553506033, 163.5431555493664, 163.5405341428094, 163.54879820298976, 163.5403377023615, 163.54418099446696, 163.5399020495323, 163.54621977491365, 163.54139506379184, 163.5541683690525, 163.5556649148545, 163.55020171679797, 163.5568863943399, 163.5498516775065, 163.56123979182044, 163.56153367567717, 163.5681295875872, 163.571208364673, 163.56781356317677, 163.56200084459067, 163.56858549807157, 163.5706720504966, 163.55537252208777, 163.56473055809485, 163.56206272617612, 163.57176661640182, 163.56617937024168, 163.57093019479765, 163.56842735145815, 163.5663133480227, 163.57160615801362, 163.57220717294098, 163.5663935148471, 163.56652569488884, 163.56370946425344, 163.56370769166563, 163.5649246464178, 163.57582853777632, 163.57511569458484, 163.56153446709075, 163.56825452758278, 163.5724836913433, 163.57353888953287, 163.55565447211015, 163.56898310428605, 163.57487456759438, 163.57344022404394, 163.5795618948696, 163.57259986829536, 163.5764593496689, 163.57436527626422, 163.56937674780988, 163.568321267409, 163.57429245829877, 163.57202203223235, 163.58155525264044, 163.58134866362226, 163.5729947986686, 163.57252994844788, 163.5653395523945, 163.5651127749832, 163.56833218198426, 163.57280486617555, 163.57387599163573, 163.57727833368884, 163.58143255261828, 163.58261071180152, 163.5787320873719, 163.5831996141467, 163.58149144367667, 163.5830790491472, 163.5802607663489, 163.5800068615724, 163.58141022669324, 163.57865163330212, 163.58638020084751, 163.58802064255278, 163.58770290758866, 163.58518175074184, 163.5766889652263, 163.58341756071326, 163.58449741067164, 163.58477636989952, 163.59181052270398, 163.58473798397864, 163.5914582135771, 163.589060211026, 163.59271380427677, 163.5963583434542, 163.59013619633038, 163.5831706989185, 163.58500903907662, 163.58158204555357, 163.58359596596281, 163.5820705315353, 163.58561042403235, 163.581299984246, 163.59106328550774, 163.58628519527701, 163.6006756036644, 163.59744303832662, 163.59220038928538, 163.5931888430116, 163.59874432397368, 163.6055695311161, 163.60359909559287, 163.5928359287763, 163.5979354216957, 163.59404114951795, 163.6083729119848, 163.5880728546475, 163.58977138991594, 163.5892114260301, 163.59566740173824, 163.60102942811608, 163.5977540270462, 163.5995310842056, 163.59767281287506, 163.59062853329874, 163.5943606095436, 163.5889667510173, 163.60220052185923, 163.5930174887248, 163.59395397567127, 163.60484338276538, 163.59905159666437, 163.60349008099323, 163.59670352597539, 163.5892628650904, 163.59609615875002, 163.58933175065377, 163.59409315180295, 163.59078894896453, 163.6033177047827, 163.60173991272615, 163.6010406425643, 163.59418972442003, 163.6072762189267, 163.60850185528756, 163.59569938357214, 163.5935351904934, 163.5901954145079, 163.6059603724305, 163.60473197095868, 163.59120305077198, 163.5995583432304, 163.6049422246972, 163.59396884180043, 163.6090288382542, 163.61587808512317, 163.6023485727547, 163.61489258991068, 163.60472250196074, 163.61468532766574, 163.60085822972724, 163.6025254446434, 163.60160040822007, 163.59317898213564, 163.59407671969944, 163.5960112242295, 163.58737778519878, 163.59544041931446, 163.59738837991418, 163.60177331947588, 163.58562733691465, 163.60376964613755, 163.6035626478638, 163.59788946355266, 163.59143764929613, 163.5859326082419, 163.58762475420178, 163.59168370824813, 163.57948601424545, 163.56992293639237, 163.56967982751027, 163.5706377099194, 163.58119317312463, 163.57900203080519, 163.58333217404208, 163.58533927503234, 163.58558073969655, 163.58570309131122, 163.59329098664688, 163.59127136836346, 163.58989170344546, 163.58929333011923, 163.57903226554063, 163.57376623737738, 163.57645444897088, 163.58737677337425, 163.5784841687676, 163.58321554524684, 163.57847417252916, 163.57653307133322, 163.58128293422195, 163.5819138090825, 163.57769684838712, 163.58293450210573, 163.5819496692178, 163.58496597284312, 163.5793233152365, 163.58453515621383, 163.5882837825322, 163.57808398038696, 163.58017157963454, 163.58386651728256, 163.5754757595256, 163.58508298803213, 163.57846032774742, 163.5858073356696, 163.588020165453, 163.59459471969194, 163.59466851787573, 163.59264418026757, 163.5962002063697, 163.59253209947948, 163.59396715244043, 163.59343247395012, 163.59891724313445, 163.59357125668694, 163.58581239934097, 163.59177722025237, 163.6009647210225, 163.598903947271, 163.59984077317583, 163.59749120533235, 163.58829518894777, 163.6039795975043, 163.5960630577258, 163.60242631267127, 163.597616754935, 163.6008064702805, 163.59161215353492, 163.59131098972315, 163.60406347501643, 163.60147591226007, 163.598663012481, 163.60569137682802, 163.5941362739924, 163.59657649650984, 163.5958887623703, 163.60375227400024, 163.59693457147884, 163.59654524241637, 163.6023484960735, 163.59573551882207, 163.59148916466012, 163.59584496640875, 163.59406586995476, 163.59213066485188, 163.5834618287561, 163.58582093008178, 163.58198338381172, 163.58382878627918, 163.5754839725336, 163.585716336558, 163.57969155242682, 163.5807082146414, 163.58482324823063, 163.58961269970678, 163.58032285707668, 163.58235059797863, 163.5783448991504, 163.58139588758027, 163.5979537176909, 163.59047332205822, 163.58799356963831, 163.5889003702348, 163.59575296194532, 163.59465482969685, 163.59007276266397, 163.58300238652424, 163.57793212736775, 163.5927167051364, 163.59106330123004, 163.59570365907354, 163.59982850918868, 163.5951429577987, 163.59458006137527, 163.59848126616782, 163.5980521226393, 163.60442122633637, 163.6048381863522, 163.59558206686225, 163.59708458864426, 163.5957898444597, 163.59832961776797, 163.5841347379349, 163.5996412830388, 163.590905509804, 163.58782581291018, 163.58916438800574, 163.592618339219, 163.58741825900367, 163.58489752787742, 163.58874133815385, 163.58806490334482, 163.59137712119667, 163.58045130201094, 163.584741836243, 163.59369251229108, 163.57978240320278, 163.57852668062944, 163.56426579193655, 163.5694539691954, 163.57855425147926, 163.56605250844333, 163.57153513283112, 163.56011527751394, 163.56821972645392, 163.56334934924732, 163.56499981465691, 163.5636404919233, 163.55872446686774, 163.56544682112792, 163.5628146988387, 163.55506203945143, 163.5651479076145, 163.54813891873866, 163.5493531817529, 163.5561200389015, 163.5586547679141, 163.56265686210952, 163.56284236505664, 163.55952083275452, 163.5614296696274, 163.54976825592325, 163.55297091819963, 163.54803881625244, 163.5539052733923, 163.54665320975192, 163.5523094869967, 163.55135172669196, 163.5440719072833, 163.54548904893264, 163.5539612965337, 163.54088649889397, 163.54361015341186, 163.54648773715874, 163.555862030665, 163.5567428235588, 163.5503442659362, 163.55121739049963, 163.55584966080207, 163.55934289680704, 163.54952057457007, 163.55061633567158, 163.55068158471917, 163.53986333627878, 163.54171505239538, 163.53714343871724, 163.5313685398664, 163.53703806510111, 163.5304145482807, 163.5315784117821, 163.54590154076718, 163.54739690542823, 163.5358125766091, 163.53613488135437, 163.53268326078611, 163.5452400667996, 163.54462517811208, 163.53932896216332, 163.5440346890893, 163.53400619177853, 163.53515429756195, 163.53465758940348, 163.5329794422281, 163.5316840619287, 163.52973333271615, 163.52535656585763, 163.53334598806444, 163.5267463231039, 163.52515311294945, 163.52346911373886, 163.52996245144385, 163.53012918460897, 163.52432016965082, 163.52613471137906, 163.5138636184762, 163.5160392647127, 163.5099301256257, 163.50816795236287, 163.50920944187726, 163.5101392644172, 163.50554691261993, 163.5041529700449, 163.51297321077126, 163.52078643879395, 163.5056656895841, 163.51426202475358, 163.5156409959467, 163.51850033350627, 163.51705929761826, 163.52315788498422, 163.51573145596444, 163.52130231782556, 163.51903524496387, 163.51971669839682, 163.5128980707321, 163.5174550827478, 163.50326979010356, 163.50883888088697, 163.5062258340858, 163.51398492897536, 163.51113056122853, 163.5081526143473, 163.5005070923464, 163.5030842186183, 163.50262337746534, 163.4980368552644, 163.49419178006085, 163.49489866772828, 163.49049137536042, 163.4934475386623, 163.49628666484662, 163.49307753530644, 163.49798936608346, 163.49584214496267, 163.49999305918664, 163.49960442854965, 163.48716406586135, 163.4894313907818, 163.48752839712952, 163.4892603971941, 163.4859773731578, 163.48934998588635, 163.48631027573794, 163.4890370768006, 163.49721632165716, 163.49220529151467, 163.49655124525506, 163.49269961484333, 163.48005277289138, 163.48665864271825, 163.4971830659908, 163.50021297085078, 163.4944741021284, 163.4961757842883, 163.4966339787575, 163.49331475291436, 163.49829375240193, 163.50517449748338, 163.50130568854235, 163.5075957865494, 163.49820149713213, 163.50358519999813, 163.49588926951208, 163.50287738142086, 163.51212805747403, 163.51033461378256, 163.49873206848682, 163.50335685367264, 163.49919732039174, 163.50197771085172, 163.49896152796472, 163.50130682370138, 163.50209793444824, 163.50863648138554, 163.5028403834055, 163.5036613854516, 163.50313130191856, 163.49190251572327, 163.49888782527063, 163.4944064449593, 163.49141583260874, 163.4920038107923, 163.4920919735844, 163.48943372145717, 163.49814551037775, 163.5016488217746, 163.50910327218227, 163.50164459227528, 163.4964539007092, 163.49711284874843, 163.49605493930852, 163.50289239369874, 163.5006524757057, 163.50712646231307, 163.50363024696784, 163.50581718220693, 163.49843088971792, 163.49951395189512, 163.50915369411155, 163.50102296818153, 163.49991436810606, 163.4996158047733, 163.50602677331557, 163.50551302109855, 163.49460330096548, 163.50542547380311, 163.49707420952734, 163.48988577804732, 163.49622639762194, 163.49348292131813, 163.5020048895227, 163.4927585217013, 163.4939027496677, 163.48553483589475, 163.4872079934407, 163.48804869462097, 163.48582585253328]
