[127.16477714070196, 127.14789655048638, 127.1488219478147, 127.17889556005623, 127.01954755106524, 127.03274201449908, 127.03108619456206, 127.1725250963168, 127.19236578765182, 127.10362647813525, 126.84276169464371, 126.9732710330712, 127.032932451663, 127.16046384500264, 127.30159718086605, 126.68719685102265, 126.33520914902559, 126.32717714265502, 126.33254649341482, 126.54443645602225, 126.64666640246239, 126.47613819995784, 126.52601948659802, 126.96276440586577, 127.0543189346731, 126.92579212266376, 127.13136201270747, 127.1686207368249, 127.11147817189028, 127.12366559826229, 127.0658153848871, 126.91752263998028, 127.03137866885321, 127.04454437243751, 126.94914007295283, 127.03215157359554, 127.05658594733009, 127.05952727689957, 127.04695439861437, 127.07814062933765, 126.84854856480648, 127.05317613301294, 127.04569769487946, 126.96928015880336, 126.75647215225301, 126.68694961901313, 126.82137807028265, 126.63814242672285, 126.6140641266329, 126.64386369682882, 126.60437619392376, 126.54864481055228, 126.78371365669555, 126.79221290156188, 126.62166931665298, 126.89329907096264, 126.73471489872757, 127.07089089036211, 127.12654997156824, 126.98770136157205, 127.13908958739334, 127.14562380811213, 127.1626117410574, 127.17853883301582, 127.14232960960642, 127.18585734107019, 127.1803979542912, 127.16082066328799, 127.15503989752074, 127.13413532362222, 127.140636549028, 127.20898896444098, 127.1425214789847, 127.0596444325625, 127.05626912133293, 127.01442260508026, 127.03317074476868, 127.03481521156937, 127.01218129552922, 127.00772140353388, 126.99263946338736, 126.99616268772866, 127.00202940400786, 126.99716163060968, 127.00963860810448, 127.0003489074277, 126.9841080882715, 126.98401077583314, 127.0071897705716, 127.00045165906448, 126.89328169064363, 126.89692681947017, 126.91417336907953, 126.96316749689224, 126.9810778175313, 126.86125010601306, 126.8746685711735, 126.9397534372668, 126.92003145131748, 126.8864860034405, 126.93111388318825, 126.74459498028862, 126.89243745558085, 126.7963323567243, 126.8820245577151, 126.87571440719309, 126.9212827335358, 126.87716501585142, 126.88832605531294, 126.8232421350427, 126.79281498266892, 126.73542125328893, 126.68751509729368, 126.68238200075176, 126.61233862348686, 126.55847523167913, 126.50874221201205, 126.49914377053945, 126.46862132328286, 126.403323904135, 126.42494733499417, 126.39539503709204, 126.35495488240794, 126.2211143721215, 126.18877311555431, 126.22200245227462, 126.17459252800323, 126.07230648301982, 126.04397342471752, 126.0101423050287, 125.88851665237279, 125.80389427281325, 125.74094447790493, 125.61972797910137, 125.68211080851823, 125.63273917430946, 125.57771535998641, 125.49926369526801, 125.51443780534642, 125.49794073240241, 125.50104102440376, 125.48244912547189, 125.41154512493526, 125.39059528380226, 125.37198125890491, 125.23875259726941, 124.9791769470488, 124.68433952814256, 124.91101952991282, 125.07298908974222, 125.05294232980117, 125.13684299785331, 124.97070446353077, 125.09021520573168, 125.24696406942078, 125.16055920450435, 125.13241021202941, 125.25839179756844, 125.17107859330221, 125.19031298037392, 125.25831290155163, 125.28039064737898, 125.24028993802374, 125.13947679475457, 125.16831183899326, 125.19274387549707, 125.19585636961575, 125.16320849412236, 125.18039136934644, 125.18172125516368, 125.18224038474408, 125.15639188960152, 125.19347137310902, 125.232456453774, 125.18885953245919, 125.21669351923343, 125.23110631158075, 125.2382588365473, 125.24383127746425, 125.26755687217536, 125.29148284122388, 125.28732438339057, 125.32122218205997, 125.32326337913155, 125.2912017119547, 125.31213483546969, 125.33490749040122, 125.3723287903611, 125.42395631794601, 125.4562656098509, 125.43024497473404, 125.48839831410905, 125.39273799155893, 125.41131836016052, 125.41462662555301, 125.3900458877515, 125.31797084891598, 125.33416105793923, 125.33064080409729, 125.35345670905753, 125.3063642654642, 125.3170537859101, 125.3171548490802, 125.32535957810693, 125.33666965908736, 125.33874800132202, 125.32108199794669, 125.34609099432959, 125.29452366504854, 125.31448140463603, 125.29089141409636, 125.33300311918501, 125.34668981770787, 125.38443225570157, 125.33163495214937, 125.34688452051189, 125.38334390324512, 125.377319495592, 125.34468853848384, 125.42663544929336, 125.39848475372783, 125.35478935747899, 125.35091491430764, 125.35968340650318, 125.39081794430922, 125.34365533640569, 125.38474212258274, 125.35706698799481, 125.32384965222045, 125.34172219100371, 125.27795999857393, 125.32479886544054, 125.30151165952668, 125.33934937511991, 125.35007498259334, 125.29921530161843, 125.31887511490713, 125.19370865349514, 125.24791477303107, 125.18216296823877, 125.17068156026791, 125.26157301167883, 125.23703901656867, 125.22889726051798, 125.17134035387443, 125.16688763525056, 125.23214333419415, 125.26865704881232, 125.22399148852821, 125.25021483879297, 125.24930427232451, 125.2309979524615, 125.25214622851546, 125.25462682579267, 125.25842316409084, 125.24227650963684, 125.25819365526085, 125.25535609339103, 125.28645062993388, 125.27235551437505, 125.22368239529699, 125.23270862910726, 125.2431267422495, 125.241306253978, 125.17110599242277, 125.23620939190843, 125.2090714953063, 125.24406738911695, 125.22028521212931, 125.24635262281802, 125.29023693811278, 125.25766179856853, 125.26820752616342, 125.30244578415252, 125.27068767423425, 125.29802419085381, 125.29010255633472, 125.29626495399114, 125.29059916619157, 125.25299370542828, 125.27007812987198, 125.2938768784016, 125.24068542122063, 125.28875633149643, 125.2518122072417, 125.27936984446542, 125.27136692185391, 125.28719186807899, 125.31597322857817, 125.3110046140472, 125.23489959785702, 125.31987230077092, 125.29122764792925, 125.27583057070545, 125.25416191358904, 125.32051173430484, 125.28988543663354, 125.28319128450183, 125.32646716415913, 125.31686824360484, 125.28108982644429, 125.26624635195044, 125.27253121351738, 125.29324565314312, 125.31329036286995, 125.28452162446317, 125.24297920490386, 125.31015303368882, 125.19767969869918, 125.22731381498384, 125.21843398376299, 125.17757038447337, 125.20022863955019, 125.1846331040187, 125.2470994014108, 125.24252941071778, 125.23558147915804, 125.25691898337664, 125.24436152091052, 125.29017109995372, 125.29779999198864, 125.3314453394604, 125.33381877455042, 125.27587833058242, 125.23338180168885, 125.23493418712204, 125.18903552217193, 125.23345407675727, 125.16064162476233, 125.2299094837551, 125.22601503893058, 125.22686220712289, 125.29849909197736, 125.21915134810733, 125.14675778526738, 125.23086736394792, 125.27716765191245, 125.25027909604017, 125.20223715436097, 125.26438938493828, 125.31537585218676, 125.34355585048344, 125.26490572749913, 125.17337561681924, 125.25903775178976, 125.25448871542055, 125.26317497288551, 125.31404594622255, 125.12436883812971, 125.34040289371175, 125.32562446301301, 125.37872698757819, 125.38632627146964, 125.34713837989922, 125.38035438348051, 125.38867356303405, 125.37012191591053, 125.38974710963336, 125.4099756962251, 125.39488134928418, 125.35943257102888, 125.3827373975515, 125.37052671932672, 125.37834765708581, 125.38758380286713, 125.3760156169915, 125.37403947298044, 125.33769877141344, 125.3522608811868, 125.34927784163304, 125.38828330582936, 125.38723774274821, 125.36550479162024, 125.40336190671579, 125.39896363814738, 125.38123772058398, 125.40064089707762, 125.38559086027972, 125.38822931933908, 125.3793304753162, 125.36815942558329, 125.38413577800245, 125.36125041196433, 125.36408320273543, 125.42066823521023, 125.33105759516486, 125.3849835983741, 125.40763967818859, 125.42482419316026, 125.41945214268529, 125.41186324390308, 125.42436242956099, 125.44692162350049, 125.43135105752566, 125.44826848604495, 125.40464389253316, 125.44505619430166, 125.43409097997976, 125.40229623887299, 125.38361527566211, 125.36549918516738, 125.382563664133, 125.40599333677778, 125.39958228868393, 125.43513477389173, 125.42335792437363, 125.44213920797459, 125.41428844963554, 125.4171916250039, 125.45393497593103, 125.50375852690712, 125.4164667447067, 125.41659768396129, 125.41315257917263, 125.39461594225457, 125.30311832398412, 125.18505639556288, 125.02886415436701, 125.32821918295006, 125.26352422086194, 125.10158866580427, 125.35158332444824, 125.15952160363851, 125.1429179242398, 125.27706400031953, 125.21001525255392, 125.29309625658959, 125.368261837178, 125.25365912074655, 125.30247151916991, 125.11263427291163, 125.15514185968208, 125.02595087601347, 125.19129478830972, 125.04942008398935, 125.0404576201452, 125.09765889544484, 125.24539085709219, 125.12295949314407, 125.16853166059768, 125.15773882008068, 125.22552508764387, 125.25607972125931, 125.4072743421783, 125.35753726242154, 125.31006094585844, 125.39799638532283, 125.4249506955919, 125.39495089420498, 125.38068330618279, 125.41860237881627, 125.45759661572781, 125.4036405137041, 125.41022771182261, 125.36201378685854, 125.40804607910185, 125.43004055812962, 125.44512964509767, 125.44012828542618, 125.41864049210545, 125.48959689929372, 125.49675500751238, 125.4985751565994, 125.52806869244115, 125.5144736140014, 125.51330896543138, 125.53197083409333, 125.54405341209333, 125.51853614704365, 125.5545572673306, 125.56696571611663, 125.54926844896943, 125.55955252173757, 125.53085090766747, 125.56135496098304, 125.58372756443065, 125.56945501141233, 125.55420078913538, 125.55470699432891, 125.56991400059617, 125.57762914472748, 125.54309440404005, 125.55058903055667, 125.57379848960603, 125.55488062469149, 125.53661702600579, 125.59134611104682, 125.55838218158206, 125.5430922881865, 125.57020159316451, 125.57145845666291, 125.58518192057197, 125.56221405301478, 125.59235612071345, 125.54683208468549, 125.59541661654706, 125.57350733803976, 125.59453761849794, 125.60012657607267, 125.62515217866331, 125.61460650614549, 125.60493144823407, 125.60862703136495, 125.5771700526276, 125.64497677676695, 125.61852929105477, 125.63274132859611, 125.6139602728177, 125.6020710455166, 125.60344381380737, 125.58782086462223, 125.5657190792145, 125.57681409057847, 125.55106492116239, 125.55880161509805, 125.55795527042523, 125.58789114796237, 125.58784094408763, 125.62177017149848, 125.59716204457733, 125.59788709144934, 125.63197430636097, 125.64001784121321, 125.61012990023447, 125.66047654292365, 125.60805065863354, 125.58204946618741, 125.61968140804278, 125.63095752789056, 125.61834618760555, 125.60204545252073, 125.60052301907639, 125.60734985543532, 125.56003241505519, 125.61322205041598, 125.58746569972558, 125.65760515779242, 125.63529102368663, 125.6170523773235, 125.67921945302851, 125.66450340991707, 125.6512847264021, 125.64878577256252, 125.63361446427616, 125.63450446193758, 125.62889676226129, 125.64811538135838, 125.65593382005544, 125.6106992988302, 125.67672102499176, 125.60595694643024, 125.60859108824904, 125.54037305764022, 125.55005025930242, 125.54594724369889, 125.62020371021354, 125.61129477932376, 125.57612233645193, 125.550925349784, 125.57939221483672, 125.52516125593047, 125.52838823769872, 125.54809816550873, 125.50369159418229, 125.60965585342745, 125.59747462617528, 125.65241193907617, 125.59716971901767, 125.62922453265934, 125.61376960509577, 125.63404378392809, 125.6183000373579, 125.67849973069579, 125.68738253240102, 125.67236795817766, 125.67615065742311, 125.69866186768348, 125.62930773612446, 125.64985597834556, 125.67400833957018, 125.64416615080408, 125.69109103222128, 125.75122083922383, 125.76469774827821, 125.76888658901622, 125.72196059543877, 125.74084053406611, 125.76825420907724, 125.74312859627994, 125.71622109585009, 125.7710581611667, 125.7594496353946, 125.78551765676936, 125.7750062448703, 125.74865454156318, 125.7765335973315, 125.7701322678178, 125.71289405431422, 125.77785162156496, 125.73098870333551, 125.75301266590282, 125.72662486128009, 125.7619812082213, 125.75137483330286, 125.74945052005546, 125.74299715516396, 125.78267153812182, 125.75243988889534, 125.7619398026125, 125.79497941542482, 125.77745028092392, 125.79975821813007, 125.82180908020129, 125.82158166838403, 125.8333206959764, 125.7636814036276, 125.79532427011367, 125.81520319222453, 125.77289390342222, 125.78650434100861, 125.80923652727961, 125.7986386436329, 125.81927517568056, 125.84330610043635, 125.86044365588137, 125.84345403899721, 125.7630668690709, 125.80764571214782, 125.73360300105465, 125.75626680197261, 125.78067558421203, 125.8005113494637, 125.82806290653122, 125.74421284965425, 125.82173961465642, 125.77467396626163, 125.74334555094924, 125.82045437344456, 125.77413915078598, 125.7736817753101, 125.71697492441758, 125.76729433849795, 125.78792826540554, 125.80692322413248, 125.78513146772255, 125.7653630787979, 125.81031843505811, 125.79561040082237, 125.78912572463284, 125.8422819389536, 125.81619521832575, 125.76816904414643, 125.78329471722783, 125.79739172593551, 125.86066909466523, 125.85040929789498, 125.80627783140785, 125.87133604860786, 125.81771565296283, 125.87933720247102, 125.82909613314713, 125.87116654504032, 125.82708324995443, 125.87288097886541, 125.83691698901784, 125.87763482191318, 125.79242742093193, 125.85853270105073, 125.88163076416484, 125.82338767399162, 125.91909732268044, 125.86868399277535, 125.8925208693021, 125.91362843358908, 125.88903027175172, 125.90325838397679, 125.8882752364563, 125.87089043227718, 125.91668335046202, 125.97930699813459, 125.95132936348989, 125.97317593223205, 125.96791534278518, 125.89900063127384, 125.97384370299831, 125.9449327840995, 125.90485189104588, 125.92764965892617, 125.98531983535433, 125.91053415431125, 125.94574170936522, 125.91861685568156, 125.83589262949357, 125.97389605592812, 125.9084865302347, 125.97918038915492, 125.99391807658058, 125.99713211849159, 126.04430159833217, 126.01337192474674, 126.02893057108368, 126.05396734868468, 126.08563274770356, 126.09269523881721, 126.11949028898795, 126.08003584293304, 126.09565066172011, 126.11358464298145, 126.10441156133315, 126.12616761950666, 126.11086575393799, 126.10508707444151, 126.1662125584013, 126.11321789862441, 126.10580809207298, 126.09183263911807, 126.09594923613403, 126.1121986037071, 126.09097514766522, 126.10777530093625, 126.10017746308056, 126.10356969348506, 126.16568638826165, 126.05469080544235, 126.08235519464033, 126.03759820176708, 126.08020847253775, 126.06425204001229, 126.06339332626837, 126.06876914582887, 126.07848034763406, 126.1021777856952, 126.06346125595951, 126.0846051788004, 126.06306859655682, 126.10734961435008, 126.09298980732324, 126.06779321578296, 126.04952790310668, 126.10118053607292, 126.104621289366, 126.04685421994884, 126.07838119314236, 126.06154462140759, 126.06860498743131, 126.00734780965928, 126.0442443243724, 126.07921774093117, 126.05910782487295, 126.03051443959102, 126.01598436215819, 126.00459677204452, 126.0714917367675, 125.88955676423262, 126.01836503673451, 125.97567035190147, 125.9174297288433, 125.94242253621036, 125.89437823948965, 125.96932969688908, 125.98679010100383, 126.0147814938536, 126.04958872124045, 126.0275149557098, 125.97861071682046, 126.06460437149734, 125.99917033435084, 126.0621908660634, 125.96447200340643, 126.03275566643288, 126.01244614435753, 125.95947444038455, 126.06276302938826, 126.01469179175983, 125.98946416218804, 126.05612050224057, 126.0182937375547, 126.03389146392851, 126.06974216077347, 126.04082619477508, 125.98656394207113, 125.96204483716726, 126.04936655499101, 125.99352803924873, 126.05329409623741, 126.08333111330155, 125.98844843494925, 126.0708299096138, 126.17265966248254, 126.08541398160081, 126.14418586031118, 126.14719229092333, 126.22699517656963, 126.21601803342955, 126.20364669877092, 126.24198966408268, 126.26813874501903, 126.2786360597281, 126.30125718871204, 126.28915265266826, 126.30245366488877, 126.3254635556289, 126.3831341005062, 126.32595450490635, 126.35556695741406, 126.29088664792097, 126.32999286415128, 126.30944343614966, 126.32597293705234, 126.29829073162034, 126.29822896055049, 126.28873914225484, 126.30379492939666, 126.30677741781673, 126.28259271961197, 126.2934868289207, 126.28593439673675, 126.27181366437503, 126.25258837878019, 126.27501135159679, 126.26426715084197, 126.17329132654648, 126.20342381109027, 126.1970588104542, 126.20942305982754, 126.08727308243839, 126.16855065895297, 126.15130562216895, 126.1790185433641, 126.19291259849167, 126.21779435695422, 126.1961689740228, 126.16863851433902, 126.22762716837528, 126.2124431563085, 126.19496184495318, 126.2350248030866, 126.19508413739182, 126.23007461326864, 126.18490921282256, 126.23301449867992, 126.24746996626621, 126.2293432862348, 126.27857082523863, 126.24259603166847, 126.26812225521398, 126.1950620573281, 126.24725018332111, 126.19331403094304, 126.19081498061472, 126.20247910034941, 126.20097862911997, 126.20568588610462, 126.1747895131618, 126.22740680194748, 126.19955855967882, 126.2020254940527, 126.20276618417546, 126.2164679648911, 126.23977039478946, 126.21941631130065, 126.1930700983135, 126.2497256421307, 126.21058616079557, 126.21444281036315, 126.19360026299073, 126.25510907207602, 126.17899041749186, 126.21635140778122, 126.22989573426013, 126.23644516736886, 126.19198354414071, 126.20145709779881, 126.26043310674734, 126.26421486464257, 126.26324146182003, 126.24701576175906, 126.27864052613312, 126.24113803273, 126.28206714252656, 126.27394839795087, 126.26376120253107, 126.28189150212759, 126.2716452191563, 126.26968767664718, 126.28691115325374, 126.22725674743565, 126.21593584363221, 126.27129490667961, 126.25463323816693, 126.25538398481704, 126.28855750209406, 126.27057219980222, 126.28586200287921, 126.25701290543881, 126.28625836885783, 126.26310446618196, 126.27553092930445, 126.28164812019362, 126.29848838452219, 126.27842538336864, 126.254258638571, 126.29260199536789, 126.26551142408204, 126.25697337035851, 126.27265444187289, 126.2673244842618, 126.28017277848285, 126.25006898393342, 126.28700660092467, 126.25279308472284, 126.27966282828822, 126.28078800185246, 126.24621820690268, 126.19963537729556, 126.22114755775827, 126.22369749618579, 126.21444619936378, 126.21013848247402, 126.19251427250255, 126.19499364088334, 126.15976247199801, 126.17311085726477, 126.19218708997346, 126.18870475631343, 126.18466410757098, 126.17716125703815, 126.15332598276765, 126.12785053209933, 126.18726666755661, 126.09686307098195, 126.17072053237014, 126.04579135348365, 126.14215764756112, 126.15008606464411, 126.0969000862322, 126.16016977052506, 126.15229146470531, 126.13164751707457, 126.14573771658307, 126.0825531120719, 126.151086782519, 126.15235778576258, 126.14194182354981, 126.16351255787475, 126.17035481876532, 126.14179685241761, 126.13972010619422, 126.12764150649788, 126.12548524370018, 126.1361675442966, 126.10954165721881, 126.0582192541644, 126.08106462594102, 126.071857059064, 126.06574211494538, 126.10182888337644, 126.09316714968973, 126.07630018755056, 126.1215620192607, 126.10905914205563, 126.09414185040035, 126.0578849408535, 126.09265810408425, 126.08499389092525, 126.13176967541129, 126.08158821987318, 126.08955562172515, 126.08916854851616, 126.08034952353862, 126.10597092581145, 126.06990215298987, 126.09867136382036, 126.10527978218896, 126.10900821922684, 126.09566517189836, 126.12558973811177, 126.09299189575295, 126.13449974610924, 126.09469823422846, 126.12116392924123, 126.08388644791374, 126.1069625156964, 126.11399490186992, 126.0870442189441, 126.1000881598632, 126.08682412127419, 126.0932020327539, 126.08311060031004, 126.10327533401987, 126.08386587876682, 126.07576689303602, 126.08793442359895, 126.08086642599278, 126.05351939476569, 126.04879026689417, 126.04907390492656, 126.05366205781046, 126.05127302697525, 126.05727474858193, 126.0540015158946, 126.02022703083043, 126.03875937906575, 126.02983592246846, 126.03427131158125, 126.04817344579152, 126.0233905627185, 126.04915279905926, 126.08036450326404, 126.05059530437804, 126.04755586032469, 126.01949280426625, 126.02963431135166, 126.01514072597155, 126.0320325890969, 125.99763232499454, 126.01905597051466, 126.00657938666583, 126.02920832869391, 126.03380175043984, 126.02154406558516, 126.01160678509416, 126.03577313252046, 126.02527045263238, 126.00901883449593, 126.0263018479853, 126.02090967785026, 126.02202013727532, 126.00471330719279, 126.00742349527351, 126.02554390400228, 125.99904783939631, 125.98637803402377, 126.02315129995239, 125.99812241665444, 125.98824523560675, 125.98298782684499, 125.98957156204119, 126.01150847336942, 125.9177830721226, 125.99551491690583, 125.9953056656833, 125.99402492358755, 126.00643958273997, 125.97993647291202, 125.97332396083124, 125.98640896812294, 125.97380876125403, 125.97156292681191, 125.97522312093467, 125.95357730445996, 125.96146747372681, 125.97036331848979, 125.96481732672166, 125.97555041586976, 125.96123958597438, 125.95986586374674, 125.93835960602085, 125.9610201839107, 125.98976072765137, 125.95924695163994, 125.94900659600683, 125.95681708988025, 125.94261948713387, 125.95983149691064, 125.97577599131584, 125.93188722296105, 125.93844450176559, 125.95812258951331, 125.96813651330426, 125.95578173794674, 125.94418670853702, 125.97951499993326, 125.97850916808679, 125.97565556406101, 125.97220862009098, 125.96219738546382, 125.97801933550349, 125.94725366652429, 126.00245911498591, 126.00265581762199, 125.96948159231896, 125.97251094884007, 125.97263973120988, 125.98280857209079, 125.97482995622988, 125.96705323608951, 125.9793301341603, 125.97932316581144, 125.95636883908753, 125.9743294762892, 125.96691846602937, 125.9442166806296, 126.00170883732136, 125.97589802599303, 125.98463528886907, 126.01040304549046, 125.9604530859793, 125.98326686473418, 125.97427460631677, 125.99376492379102, 125.98737674696804, 125.96463114315287, 125.98733872262969, 125.97245492421202, 125.97796381746294, 125.9648253532182, 125.95691749466204, 125.96562467962578, 125.98057001172845, 125.95529956997393, 125.96357130443695, 125.98879546823079, 125.99753458491416, 126.00150213731408, 126.02343784844565, 126.00617006005108, 125.98122090822031, 125.98631833592474, 126.01513003628712, 125.97023088434403, 125.97961602909196, 125.9756179024716, 125.94147527190003, 125.94968676672914, 125.93552809018767, 125.92946281543459, 125.93003538286936, 125.97085934647276, 125.9460052521476, 125.90138426774372, 125.95070663906878, 125.96135921552218, 125.9413973686435, 125.96517007529711, 125.92437161678298, 125.96130961652285, 125.9383663135037, 125.95168348744342, 125.95410520505995, 125.93860074684991, 125.91628482200849, 125.89958948037913, 125.87218961223765, 125.91007911293839, 125.90381337641128, 125.9045307299361, 125.88894179847087, 125.87957013171946, 125.86467181982334, 125.90480131345355, 125.86881003201708, 125.93383000881198, 125.88956839652013, 125.88976602075171, 125.87927000676085, 125.91715096875251, 125.93826720907255, 125.91238858902422, 125.89328634800289, 125.8582640053002, 125.85563834232823, 125.873010154384, 125.9152622327051, 125.9216743879699, 125.92374201242411, 125.8919393874682, 125.88715195138552, 125.90593878767922, 125.87915617520665, 125.90975235298045, 125.92401112966056, 125.8990667266003, 125.94493497010093, 125.8934672740862, 125.91651276939439, 125.90235016214916, 125.92091127162357, 125.92449487418038, 125.9066397888938, 125.90643326896208, 125.93782780206766, 125.91549922962515, 125.89827400503823, 125.93258667046528, 125.90986992637175, 125.93074555327385, 125.92275566676611, 125.94140367446585, 125.91737362671618, 125.92455510625791, 125.93665870313252, 125.95011082024821, 125.91706161137441, 125.8903535931785, 125.90305933732927, 125.88725723883823, 125.92464482872406, 125.91393837265286, 125.92308001070377, 125.89288817398821, 125.89713284499707, 125.89935461441776, 125.88262228424428, 125.91298878569708, 125.9282351943816, 125.88148068889573, 125.97333726220293, 125.90238574969243, 125.87891131602053, 125.86990124325698, 125.87020608221009, 125.86758987470324, 125.87043701341506, 125.86074207354822, 125.85809167446212, 125.86152749944333, 125.84864166740893, 125.84046527991164, 125.8587004449433, 125.83114350464606, 125.8320699422789, 125.82166507091803, 125.80320709442765, 125.79959293288738, 125.79918273596496, 125.81425803434222, 125.79981558855758, 125.80885922059878, 125.80610908702198, 125.81180923542772, 125.79603274587227, 125.79322454865934, 125.81355849175918, 125.80586194765928, 125.80230016073519, 125.79403412884217, 125.80727552801225, 125.80320825616184, 125.81998005023065, 125.81225958113691, 125.81279327569473, 125.85255436743165, 125.8480298516767, 125.8408429002752, 125.8388090669065, 125.82903597673062, 125.82010798684216, 125.86975727269085, 125.83725080893905, 125.83985559181093, 125.8479115555694, 125.817091734544, 125.82626945126947, 125.86238568889561, 125.86403151136003, 125.85264372527354, 125.87887608994133, 125.88337279768834, 125.88411012414383, 125.84322273782936, 125.84075757102785, 125.86185381256719, 125.84943061434771, 125.83474188872785, 125.85885879188764, 125.82731317598595, 125.8326778500147, 125.82408666384326, 125.8433120337464, 125.85410701702746, 125.8598060416899, 125.83863635350694, 125.84801590308389, 125.89130929283469, 125.8544903507599, 125.8553434451036, 125.86314531697944, 125.88488602311644, 125.87951377431352, 125.8524537538622, 125.86014728381349, 125.87535077113884, 125.84168963087816, 125.84779749138303, 125.85079737314923, 125.83947600745505, 125.85750472724679, 125.83436381386267, 125.8501678922279, 125.82778694004904, 125.83410366236856, 125.84099418749778, 125.8152701895739, 125.87059736298819, 125.85085510275941, 125.84200344129735, 125.86559652657668, 125.86303745881136, 125.85022197261446, 125.86540836204938, 125.85203285384321, 125.87184381159639, 125.8700155613917, 125.85809925385773, 125.91550037018206, 125.88938106390096, 125.88239489673558, 125.89915913934391, 125.89339180739215, 125.87977272727272, 125.90176549264379, 125.87983456193676, 125.90090648450771, 125.91761328173762, 125.90459187539841, 125.90072848775222, 125.90156027104136, 125.87376244241068, 125.90230712645727, 125.89085448452872, 125.89625753307422, 125.89713221402344, 125.90916222781877, 125.90061109600582, 125.8887181200579, 125.90036929957813, 125.88602481013785, 125.88142929666277, 125.90642165051787, 125.86991156747321, 125.89276823527841, 125.88454447482566, 125.89195425852752, 125.90321632347634, 125.87855873669022, 125.9067205893488, 125.85283421983843, 125.89140765219095, 125.86263856070417, 125.87160962059802, 125.8870202155134, 125.88617079055852, 125.89252165860869, 125.89512538291656, 125.88701498185704, 125.90546572230389, 125.90992796910288, 125.88484570553378, 125.8759717880901, 125.86213711508158, 125.8693095050466, 125.84894222166831, 125.86016753013229, 125.8772857810726, 125.83707995158765, 125.88706252142593, 125.86893776513583, 125.86247835435206, 125.87185170349602, 125.8845664173789, 125.84083163524083, 125.8649094784052, 125.88836124598889, 125.8715009212201, 125.88911344171223, 125.87335226210715, 125.86938490359499, 125.86075814201816, 125.86000507340867, 125.88807265927606, 125.90666446952353, 125.88047743113546, 125.8706883113991, 125.92430728344524, 125.92041562611487, 125.90747099271363, 125.90387222202403, 125.91176405000513, 125.89327390238466, 125.90587700048172, 125.87922741921824, 125.87610422256492, 125.88253103374475, 125.8867163294147, 125.90353525668186, 125.8876772180116, 125.89154869269676, 125.90027070780951, 125.8822116027567, 125.9252717330655, 125.89568730269143, 125.88865393451911, 125.90580353755585, 125.88864746692842, 125.87507915696716, 125.87426660722248, 125.90073519571018, 125.86896773129178, 125.87789414549978, 125.87572666642889, 125.87755993811113, 125.89486711770977, 125.9219565091279, 125.99456254635463, 125.95200860479959, 126.00162110020453, 125.9698924539168, 125.95319171719606, 126.00271593467464, 125.9366241484079, 125.94030157030693, 126.02181322731231, 125.89998751849937, 125.92499086069921, 125.92229874393378, 125.92650141377742, 125.96406354589674, 125.94681007677585, 125.95612019541794, 125.98129715308048, 125.9316427931362, 125.99474731787429, 125.9629538785376, 126.00797354941191, 125.98533556927248, 125.99727443860573, 126.0613822045627, 125.95445572790183, 126.00888496380448, 125.92448763282357, 125.93033646799924, 125.9482876178168, 125.98037275276266, 125.9019777970589, 125.90489760841398, 125.97973036211698, 125.9304324983749, 125.95198671072673, 125.94576778492402, 125.91445644290792, 126.01112691188074, 125.92858414801361, 126.0014976599064, 125.9186048582419, 125.92173223858798, 125.92207520550444, 125.91011255958448, 125.9400241364108, 126.00820614770176, 125.9348037076941, 125.96739401607356, 125.94685966677649, 125.95236483477332, 125.94321165674205, 125.91957898857612, 125.934417180099, 125.94079363242194, 125.91020393636332, 125.95565728128102, 125.92176899498628, 125.93696452335067, 125.91541130933842, 125.94323517238617, 125.92662027974517, 125.94279597840551, 125.91593573754159, 125.97703427268516, 125.96638909916732, 125.9592199212977, 125.94590058849192, 125.95105312374761, 125.95089877936947, 125.96241683070429, 125.93711153526158, 125.9228760321754, 125.95965138080457, 125.99486379936297, 125.95547501480455, 125.9974734309204, 126.0214148798645, 126.01284114157346, 125.99882730114281, 126.00872328855053, 126.0384845241281, 126.0340903514759, 126.04535863567219, 126.0253015487831, 125.99206129871983, 125.97555749579037, 126.00694311285122, 125.95619556743512, 126.04504934592114, 126.01769745732851, 125.99151711287632, 126.0261094859263, 125.9714666167878, 125.99881021344859, 126.05286251287562, 126.02148098970284, 126.05327715355806, 126.02610606452302, 125.98623583493693, 126.02964676104791, 126.0606958963957, 126.01678534190052, 126.00439686739904, 126.02323332694647, 125.98008071053782, 126.06840091676848, 125.93984517506784, 126.00744396976083, 125.96354563139643, 125.95755978795472, 125.95315656902798, 126.02116842958857, 126.01506700406303, 125.97230580233946, 125.96002492322755, 125.94185068676612, 125.99663334149761, 125.97689752813791, 125.94273764766079, 125.95220589871514, 125.9584306918575, 125.91601550346249, 125.9317886742788, 126.01479479622094, 125.95338575952746, 125.99719068607808, 125.86855035763472, 125.96130433234845, 125.96400944802032, 125.90316041237847, 125.97521113474356, 125.96004360012456, 125.94455460511107, 125.95257769555084, 125.96136655741205, 125.95453049241581, 125.93695952765216, 125.96449330469316, 125.93953052144036, 125.91664112235061, 125.9327396505448, 125.90437165751646, 125.95460062690348, 125.93990683781958, 125.96416012803131, 125.97665575578601, 125.93281907495701, 125.91084389797531, 125.95484280978073, 125.9693039592735, 125.963980461267, 125.95532546746213, 125.94419803564286, 125.86547857304514, 125.93263090534997, 125.9587173297412, 125.93159332726182, 125.92641696313964, 125.89862888442059, 125.96467172626589, 125.93151780714774, 125.86515552320421, 125.90237229114199, 125.91272581827879, 125.95635834808364, 125.9478224906278, 125.9939526894735, 125.98509316217252, 125.99571455272034, 126.03437168646249, 126.01695745495675, 126.0413989752729, 126.00523163917273, 126.12235714890942, 126.03215349609715, 126.04138401029812, 126.05154827444902, 126.05669818298475, 126.050402579358, 126.06381936185093, 126.07086663281035, 126.07924693129851, 126.10465079980912, 126.1105903443601, 126.11769008129936, 126.07733206169809, 126.06695634734943, 126.15750654082098, 126.07085312491644, 126.07237551820978, 126.12385875552503, 126.10288970434145, 126.13628292526234, 126.09899383461799, 126.15858018272135, 126.07857034600194, 126.13519842632778, 126.08253900348926, 126.13337020714758, 126.07177675197833, 126.06180658551686, 126.04236488291336, 126.12583620243682, 126.04305749163835, 126.07206280044731, 126.07466376802554, 126.10875603568579, 126.09460706721659, 126.06203007518798, 126.08006631341108, 126.06794944333315, 126.08147028935123, 126.08882760218494, 126.07073691340366, 126.1785397154038, 126.06776799119653, 126.08493659718943, 126.06809403525654, 126.12121171586921, 126.08802106304212, 126.0859747051984, 126.03628359159036, 126.05377143467653, 126.04483763993679, 126.12630002273508, 126.09200404452542, 126.10001425338963, 126.1261108684607, 126.1688054004887, 126.09265322304036, 126.11645908068002, 126.09578504814415, 126.09425835189309, 126.14038943323554, 126.0470657344898, 126.06577506299698, 126.11009231536927, 126.12996319105889, 126.08336636044228, 126.02174357970422, 126.0906111252132, 126.11029326584624, 126.04826797647333, 126.16366814252018, 126.0455286000445, 126.08472621194913, 126.10839637520382, 126.09384047964791, 126.08962776857148, 126.07359220620778, 126.09571155568028, 126.07650718577008, 126.09384827831975, 126.11416770261057, 126.14322264319145, 126.11775320347168, 126.09775930208208, 126.05381962215446, 126.07348520275235, 126.08678998213959, 126.08084621411781, 126.06524680642721, 126.10285437014218, 126.106962371935, 126.09345594715617, 126.22099472144946, 126.13357172438668, 126.1127155536959, 126.11581712148866, 126.04127171844712, 126.13358153122661, 126.06747322473426, 126.07057540830404, 126.07350067437937, 126.10056758741958, 126.0670294126807, 126.08748870560692, 126.08462582611985, 126.0590294613506, 126.06977116765907, 126.07102947587569, 126.08491086606324, 126.0909560263486, 126.06248999412989, 126.05723447499855, 126.04105819541319, 126.02886782137954, 126.06457894315666, 126.08644605237996, 126.05623766425434, 126.06680862035243, 126.08314502784549, 126.05692708425937, 126.09691418408181, 126.08960439619068, 126.09447750704989, 126.10417574792503, 126.08387228780613, 126.08913323039545, 126.1106476555927, 126.08982808150341, 126.0663713665635, 126.1277329034901, 126.09510416064015, 126.13095869174947, 126.16186678547561, 126.16481553259645, 126.190973662034, 126.12303573973774, 126.14618140019782, 126.19130613173259, 126.16574758043306, 126.11494488455608, 126.12646064337359, 126.12917715737171, 126.14477497480897, 126.16293056558686, 126.17083578575634, 126.18325632425874, 126.12008948665499, 126.14884890418531, 126.10872354644687, 126.17505451918316, 126.15350599563143, 126.17154199562871, 126.10445541026827, 126.10436758056973, 126.129837947694, 126.14810076361739, 126.16937544310231, 126.12755954635593, 126.17444935492358, 126.14360087541398, 126.11700165713368, 126.14518709309425, 126.15606191652326, 126.13443131383349, 126.15616460340316, 126.11112744181075, 126.16065864606689, 126.16871620928957, 126.1450207866395, 126.18429112112659, 126.12867966380266, 126.18807932840282, 126.1357882777518, 126.18623398743517, 126.17676821711646, 126.1676233087934, 126.14106390371234, 126.09125576800709, 126.14339158783604, 126.12547511594164, 126.11106363280277, 126.15796854965095, 126.11162066588084, 126.1278062632413, 126.10424368607669, 126.11747487733378, 126.17499832995613, 126.16389173307216, 126.19545596293491, 126.14995368638557, 126.17189991359575, 126.17757542277741, 126.1394049976636, 126.08285057553029, 126.12004557227924, 126.08523202248192, 126.10139460397251, 126.087934514864, 126.08356267311633, 126.08775080230066, 126.05955025232782, 126.08939411445789, 126.08779289107319, 126.07015953831186, 126.05586567369652, 126.08294507193014, 126.0808928373126, 126.0982619399967, 126.10035643177133, 126.06825077406256, 126.05780059328207, 126.0590798257185, 126.05664023455721, 126.05563181626351, 126.0487979285197, 126.05612657350733, 126.04747081366484, 126.05607285650822, 126.06325266404187, 126.05294211732927, 126.05542867806491, 126.0699644602399, 126.09577262001574, 126.08059908386909, 126.05901844687364, 126.10475030450671, 126.08919858149726, 126.10346467330922, 126.12709230830788, 126.1341372855053, 126.16827908921479, 126.13499837704926, 126.1187148851433, 126.12318840579711, 126.11170413691043, 126.10447595292402, 126.13807071350038, 126.14916054330882, 126.14433623234873, 126.12619899275711, 126.13250277076742, 126.13118407765437, 126.12568738765995, 126.121561368066, 126.12166083620406, 126.14559480778478, 126.12391380760214, 126.12438816011961, 126.15142329349446, 126.12780087420214, 126.13781192411442, 126.14544766652573, 126.1635496327705, 126.15854271915964, 126.14257102291694, 126.11850401584087, 126.12815845919702, 126.14187559519041, 126.19546114839272, 126.14398796167683, 126.13456555997757, 126.1550069931316, 126.13500180322978, 126.19090086596871, 126.1289830176588, 126.18902996082765, 126.11872326979649, 126.17003083449185, 126.1262617720888, 126.13404557327009, 126.1464562372006, 126.14547121280893, 126.12642082738311, 126.12279258040122, 126.13297884174695, 126.1260496348806, 126.13109102394151, 126.14700230420897, 126.13348904460017, 126.13558522684296, 126.12292533196913, 126.14806837348192, 126.16132823455565, 126.16546320616123, 126.16204340567613, 126.13442043973544, 126.16575957563269, 126.1493848310232, 126.15746280274892, 126.16927700115751, 126.13893582583331, 126.1677025818536, 126.16546160794138, 126.19468664183124, 126.17266203054855, 126.1702423900037, 126.1447707115389, 126.16108968113079, 126.17361586999279, 126.1422181116437, 126.16294641864023, 126.15141770631796, 126.15892967544222, 126.13658033300129, 126.15212431453998, 126.11856465243234, 126.1548990745723, 126.13536716030393, 126.13750277913645, 126.15243097092085, 126.16375917715749, 126.13113821427301, 126.14477836146592, 126.14901957298535, 126.12386990150651, 126.14222095803592, 126.13566836818559, 126.134876694068, 126.1518577275333, 126.1495840813352, 126.12173179021258, 126.15194244220669, 126.14128995565667, 126.11528260898538, 126.17414479094892, 126.1747747587574, 126.17020756478065, 126.16566056187767, 126.17788307670423, 126.16718153411237, 126.17357120317159, 126.15291336553373, 126.16798965314939, 126.17615535015997, 126.14482167215402, 126.18518650246743, 126.20258007117437, 126.19477845568225, 126.21043946268126, 126.2092913602982, 126.1910138843181, 126.18027266863866, 126.15935842193497, 126.19562440754603, 126.23655664895158, 126.19738914546572, 126.19249123056926, 126.22166254704166, 126.2507508979581, 126.19977205034482, 126.21480498782425, 126.22601266020143, 126.21494111568407, 126.21264615946124, 126.2324363558639, 126.23036810089152, 126.261375585934, 126.23798645344876, 126.23534387200456, 126.23795357785419, 126.19670949280619, 126.20177429980592, 126.21584562046881, 126.22704681487815, 126.20656106885517, 126.21686323378877, 126.21765745551356, 126.23438752426924, 126.22781784188034, 126.21839704508032, 126.2213500994487, 126.22753785030721, 126.24155137724125, 126.23089247804742, 126.22883150626423, 126.23575415513082, 126.22986705582944, 126.22120375188462, 126.24264911976296, 126.24243948248007, 126.26558514119338, 126.24925905818063, 126.27461003771602, 126.22248509131983, 126.28486549082487, 126.2515382459325, 126.22778116285586, 126.22245103097369, 126.27262893619294, 126.24252007027376, 126.2510590580613, 126.22245000511398, 126.24159390054581, 126.24619407864014, 126.25226338912506, 126.23249919965852, 126.20880210162288, 126.22086170420808, 126.243828258395, 126.20992268041236, 126.21480589534299, 126.21639827947817, 126.22283352590881, 126.23288383586973, 126.24084034958258, 126.19319226822215, 126.20775297123181, 126.22723050186015, 126.19562030175402, 126.2104446903343, 126.21697610138911, 126.2109423599879, 126.17441013431882, 126.18874597356438, 126.18627180981487, 126.14782064150508, 126.15652065770655, 126.16684656352581, 126.13829636076231, 126.16395984185509, 126.18713393119019, 126.1580345521503, 126.19644388745938, 126.16702199481222, 126.15786177767711, 126.20332687625513, 126.1794293327412, 126.1759092745785, 126.19035082267072, 126.18927436393658, 126.20891890571785, 126.2460836697802, 126.22594642127515, 126.21059547962902, 126.23726691529036, 126.22255119116845, 126.20163033108058, 126.27276683615695, 126.31922523195053, 126.28527520164873, 126.306625625719, 126.3227159243365, 126.31760300956255, 126.33898485770507, 126.36332903913642, 126.36631701476358, 126.40736247572578, 126.43319955020424, 126.4801723333022, 126.5175786459908, 126.53434639375092, 126.57141333048837, 126.61662872994985, 126.68562510837523, 126.73788190723505, 126.7636201912386, 126.80876074078027, 126.84091586349223, 126.86585539424993, 126.87142241015175, 126.91889957364702, 126.96239167263235, 127.01236072500834, 127.03122985332107, 127.07677870974054, 127.07212188011094, 127.13978485060058, 127.1424099599822, 127.15620734575558, 127.22983939137785, 127.20771413071512, 127.24826709231652, 127.26794903155508, 127.2781464612319, 127.29196281635014, 127.3150077400758, 127.33921039987187, 127.36051032482496, 127.37209022957822, 127.41153851289103, 127.36608218861312, 127.37968597099902, 127.43329416268283, 127.41854938834723, 127.37284322747864, 127.38156672194043, 127.39158062307125, 127.41379755341069, 127.34058653632526, 127.39262485430328, 127.34256296770295, 127.3410238179879, 127.3594685537247, 127.33969435109618, 127.31831103530372, 127.32350366779671, 127.3017564116798, 127.32757019932566, 127.31527745695553, 127.2546920222305, 127.30479290834316, 127.26206957795884, 127.2595886578987, 127.25521427715043, 127.25971713403939, 127.27574888067657, 127.24369587422837, 127.23355093702817, 127.22401086802103, 127.1940988963178, 127.23210954572104, 127.14541275855643, 127.09503279975516, 127.14241839202893, 127.13221288266779, 127.14231112413269, 127.1543557998881, 127.18392550932465, 127.13194731164178, 127.06830019254488, 127.12952578839179, 127.09000541399297, 127.09773175017304, 127.11290086396251, 127.10748967469179, 127.0904043248613, 127.05794660899778, 127.10904796302286, 127.13023445391553, 127.24320115702334, 127.23617041086415, 127.30346084919887, 127.23371323236172, 127.32685535874262, 127.37664089152705, 127.35003814017847, 127.42404417182271, 127.46807868211891, 127.45414713402941, 127.45021866051013, 127.45106466106661, 127.49182003181346, 127.45100233100233, 127.4241354818662, 127.42082175237316, 127.364450814471, 127.37021705178717, 127.43059212132782, 127.47473683742795, 127.43296589138339, 127.38340292785097, 127.5024924249829, 127.54420979139151, 127.57240999052883, 127.60076362034364, 127.60326984451991, 127.6213706338536, 127.62399198486028, 127.61423579425315, 127.64787426977458, 127.67558304847559, 127.71835088705396, 127.69436892165339, 127.75874086866497, 127.68259898440948, 127.70857693285348, 127.65785440613026, 127.72882490195991, 127.73078021144666, 127.76283993983407, 127.71960236901725, 127.63886254658136, 127.69858794583558, 127.65730019454128, 127.6486166447793, 127.73624849484902, 127.66371267618177, 127.63920701120314, 127.59376695454182, 127.61169942957828, 127.60957566537218, 127.60655657503237, 127.67239988771203, 127.65108265963887, 127.60918445884921, 127.5860552791745, 127.63803670059595, 127.57939891269076, 127.69495088977483, 127.5617139098513, 127.6369353611152, 127.55895087797289, 127.58771652983299, 127.58020136465673, 127.60140606448687, 127.63600444938821, 127.61232120864511, 127.6470590852267, 127.65848598838114, 127.63113562073335, 127.58476719635514, 127.63607822908422, 127.66001459776048, 127.64065649038353, 127.64596563524947, 127.74516070083482, 127.65121939281757, 127.70098056678718, 127.70632552920537, 127.69249776281873, 127.68119476312113, 127.66338633471842, 127.69557381134628, 127.70244935928535, 127.64902862530911, 127.63541027624406, 127.64109312550848, 127.6291285952999, 127.64012304245588, 127.64164599393601, 127.64676955363772, 127.67300926481904, 127.68024965412317, 127.68117463381654, 127.67387070958564, 127.68584824665591, 127.6442273503058, 127.65157381436059, 127.69335018108364, 127.68026472628938, 127.67724750080046, 127.71957229154333, 127.71894153517461, 127.6870587293184, 127.66121900661015, 127.65395183808492, 127.65041235967544, 127.63745903862485, 127.68986826475181, 127.71902364321933, 127.68497325870094, 127.67940806129396, 127.67181757508344, 127.66578435777552, 127.66582441780288, 127.63307714204385, 127.64609621100216, 127.63264852266815, 127.61863464531909, 127.59796845049877, 127.6308365260961, 127.63555080594888, 127.6348790214895, 127.65961983618233, 127.64459113002297, 127.6369492249753, 127.67604297511825, 127.60746004342718, 127.61769090755352, 127.61924468354937, 127.65441935828497, 127.6080599604119, 127.49946908473764, 127.6181831129468, 127.53814900426744, 127.60324471965694, 127.62624459765613, 127.51431694571825, 127.64795434615196, 127.63012399967955, 127.65445487692493, 127.63843195898312, 127.64941021405066, 127.66499548067375, 127.66656428883013, 127.68893688077479, 127.67185864981721, 127.67413964998487, 127.6628826984692, 127.63087526028227, 127.65829995549622, 127.71309266641427, 127.66496517656483, 127.65113536748706, 127.68466936187644, 127.63681813329538, 127.67455724042135, 127.68677021149678, 127.6791009895525, 127.67405112591861, 127.63338241377929, 127.69417443305029, 127.70579903794761, 127.67423075896076, 127.68550917498564, 127.68073391228484, 127.6880355386211, 127.65676768845361, 127.67649101252637, 127.68317461730152, 127.65003403645682, 127.67967581713309, 127.6691216390612, 127.69610404639714, 127.66658658872414, 127.6654020299421, 127.7079272688436, 127.71320459057846, 127.67636627402466, 127.70198734436326, 127.6813222507987, 127.67778890001114, 127.68119893432015, 127.71768946642338, 127.68222498999154, 127.69373265001069, 127.71284850049635, 127.7348422093365, 127.714330219455, 127.70784676001158, 127.73363732711097, 127.72034003916681, 127.73631599335668, 127.75129286729236, 127.74125481886412, 127.73921212445013, 127.69000204657289, 127.75705379408622, 127.72991937027787, 127.75896515480812, 127.7061845353259, 127.73651151195712, 127.7244653150246, 127.73960137297937, 127.74152959464094, 127.75655817640171, 127.77609798276032, 127.71980091351847, 127.78640166524777, 127.7087264098443, 127.69765567602467, 127.76299949170227, 127.66963876338222, 127.67867779632722, 127.65442282195707, 127.71312439309035, 127.68207711459407, 127.70209656868424, 127.65569156918363, 127.66707033110873, 127.72708632355958, 127.65461756222626, 127.64530877167991, 127.65546869435146, 127.61173696387257, 127.65502101738387, 127.59190870723431, 127.63802014931686, 127.56478179279432, 127.63835600589177, 127.53719430630917, 127.4756113804678, 127.59763884565787, 127.5846501329397, 127.56556932541517, 127.59682840299821, 127.58126519707861, 127.60315435257093, 127.63293566065263, 127.62960755445444, 127.59640059397312, 127.62442575635616, 127.6064766631975, 127.62001405806514, 127.59071983345343, 127.60978009259259, 127.59059913081772, 127.59758853888592, 127.5764416490223, 127.63692336458584, 127.65032968012117, 127.5678713501295, 127.55522449124805, 127.54947610915431, 127.57472537739751, 127.49529924023638, 127.45486764967133, 127.51856742110013, 127.50600990389488, 127.52193989216892, 127.57338061634023, 127.52701789335137, 127.54410292239433, 127.55317700453857, 127.57960232230948, 127.5444651589106, 127.55268839221726, 127.54064304187384, 127.51339593517996, 127.49766262648726, 127.49790733566692, 127.51562861361656, 127.42466282507748, 127.42921549746399, 127.2909949836848, 127.44675645849675, 127.42546579726698, 127.41986938399864, 127.44482734213948, 127.44056775585261, 127.47573845725327, 127.52971536229832, 127.40990577689946, 127.38466894655198, 127.16847964572223, 127.04764122959284, 126.99251335016584, 126.93214782961175, 126.94650639082941, 127.13681346528315, 127.01868339673854, 127.27761417786581, 127.17893462038505, 127.00079852007612, 127.30189340813463, 127.1249010669296, 127.16240509180533, 126.97313974272828, 127.07339900397096, 127.08046783215558, 127.0336550684235, 127.00626647632227]
[149.77880889298467, 149.87994039463183, 149.95554734240375, 150.07428111319865, 149.972348078559, 150.00376362232467, 150.10107665187638, 150.04113671118833, 150.11778335853924, 150.00735654279455, 150.00582548511034, 149.9527142850542, 150.12773857635645, 150.13980667838314, 150.16034448449957, 150.0239209015522, 150.00864140480593, 150.13627196106913, 150.16533761343976, 150.20561119463397, 150.05152063688502, 150.1272364058432, 150.0996851464, 150.17551122356, 150.09985817699695, 150.19391733457897, 150.23032283143905, 150.23763577268898, 150.2433779127922, 150.18096405606698, 150.23974770705885, 150.224527568528, 150.24988081959094, 150.2010663803238, 150.23238526628782, 150.23465324529803, 150.1831266105639, 150.17765616904745, 150.14456783670903, 150.24772371504525, 150.2170131415108, 150.21521470575988, 150.19063562163285, 150.165824779669, 150.2553834477205, 150.14491842676895, 150.20940255920533, 150.2551654278274, 150.30584713888516, 150.2604470988499, 150.2253182689864, 150.3021804403444, 150.2467622507557, 150.24949739105517, 150.24585785967085, 150.17808674458539, 150.18756407296237, 150.23524764003827, 150.25076819998614, 150.19381598445227, 150.22586692524357, 150.24848014487128, 150.23980155118971, 150.2536001884988, 150.23110493308334, 150.22625165648535, 150.29405378435442, 150.23846810868213, 150.2831905014899, 150.31031806527614, 150.31491498334773, 150.308150460088, 150.3667156427885, 150.3278497732374, 150.30824991689136, 150.38797599634125, 150.36513675888597, 150.43146584378871, 150.44112972528438, 150.40550726511913, 150.39426233671486, 150.35209707931529, 150.47140599878028, 150.42306999764537, 150.4577618662663, 150.41873729909477, 150.4685121427086, 150.42663790355735, 150.43411894568143, 150.45847516731405, 150.44964155057093, 150.39363985983314, 150.44292887067942, 150.40112942176006, 150.44742640435683, 150.40789382573573, 150.4197744051934, 150.38873193925127, 150.43136177209578, 150.42306235740745, 150.3806185091161, 150.36653329456774, 150.454974310638, 150.3869651323291, 150.3832597085474, 150.39361230632858, 150.3852601262785, 150.4419080430044, 150.38502693545186, 150.39031990029082, 150.3906070384887, 150.3686450653901, 150.34974446101356, 150.30654198705818, 150.3450314546748, 150.28629382118925, 150.20405555632433, 150.25369992521675, 150.22677238762918, 150.17317585180743, 150.18776774503286, 150.19049817840965, 150.14996167379317, 150.1392733084513, 150.05977967158594, 150.03346590357938, 150.0199486388368, 150.00367237771445, 150.01009559628704, 149.99488117677498, 149.9893277400219, 149.95539880077976, 149.8807418211358, 149.89825052419616, 149.84970815323803, 149.8014793473142, 149.7921075603549, 149.68671857332083, 149.68762524818766, 149.65729932399987, 149.5662447685713, 149.56257672675582, 149.51293598682176, 149.53492366147893, 149.5272227068995, 149.59887196164115, 149.5217369234674, 149.56980867252713, 149.63452304478633, 149.61937198179257, 149.62095547965782, 149.64470898247885, 149.66144277456647, 149.6067510236526, 149.60961575790066, 149.6520641554971, 149.5972233776077, 149.604426840203, 149.6115294476571, 149.63240062725217, 149.5315779501943, 149.5387221572552, 149.48742889621042, 149.48916500258858, 149.48249640590402, 149.3998465825335, 149.40681515588594, 149.36749446516637, 149.31228575916327, 149.33218240982123, 149.29970831195365, 149.30213582358653, 149.29505242388254, 149.26649610226474, 149.3255895616175, 149.36135308117102, 149.3975504356065, 149.46176001479392, 149.41210268158179, 149.46555866670363, 149.50823368510544, 149.53651763270736, 149.53230045777266, 149.57334614798148, 149.60361784334387, 149.56879140373084, 149.61846563463484, 149.58955334208048, 149.52996070500123, 149.6154454328568, 149.51280937706463, 149.53218590549434, 149.54268453335675, 149.5182021162994, 149.51623804394558, 149.51198957066845, 149.51266320227836, 149.51948484204104, 149.51289293639053, 149.52558305128633, 149.52650166877768, 149.5120589662423, 149.55412658274662, 149.61630810780812, 149.54341418341417, 149.61323515136388, 149.62284678988553, 149.63662204884542, 149.65397699959323, 149.64594930451935, 149.68489857805884, 149.71348862580493, 149.68158417671796, 149.69768011574, 149.70545158665584, 149.6720715890287, 149.59208477888288, 149.6131561308217, 149.56014087175956, 149.48847029906534, 149.4309525458954, 149.35965106720974, 149.30123180808366, 149.2118179300157, 149.12059883943698, 149.08805034350297, 149.00389105058366, 148.89330607649143, 148.91270695268665, 148.83269233432907, 148.80661534127384, 148.70514855871738, 148.7239251904872, 148.59476277018737, 148.61671812907605, 148.6000240031758, 148.57294416243653, 148.61615205628704, 148.62312671400474, 148.66007797415025, 148.58267622019906, 148.63621452794794, 148.6002272380873, 148.65428818329275, 148.63367640129712, 148.64561967588742, 148.67972898651865, 148.59886368885398, 148.67816618116242, 148.59923419075022, 148.58458327176, 148.62794791705173, 148.58062490186842, 148.6155790621693, 148.59286661644893, 148.60991809643545, 148.59027386244952, 148.64335851883362, 148.55037295337505, 148.570160891718, 148.5703906589194, 148.5867814418985, 148.54714149837014, 148.64890105317662, 148.57440028080808, 148.54909067404162, 148.6206912487118, 148.56215157659426, 148.54447907288133, 148.62330875013865, 148.64666432486896, 148.5964387306513, 148.61967432728952, 148.59908012856036, 148.63709316024116, 148.67654289041275, 148.66104263300872, 148.70187402971834, 148.65765603495257, 148.6704354857341, 148.69368470179427, 148.6506183215272, 148.6976167382569, 148.68296760131517, 148.67212955779675, 148.72505096356971, 148.65049386535645, 148.69530535092017, 148.6636544236544, 148.70417920242534, 148.7393926221207, 148.70704441536947, 148.8083423994815, 148.74132675950807, 148.7883716841998, 148.82422061129796, 148.82859389817963, 148.87042598977254, 148.79329557276617, 148.81380761847493, 148.83421982535336, 148.85126049643029, 148.8189560363391, 148.8269856530099, 148.81592472084597, 148.8323919574763, 148.88439127257928, 148.83669377194605, 148.84520046581267, 148.8922800220082, 148.85546216157516, 148.81580344488506, 148.86598628460598, 148.9069234677382, 148.91766602609113, 148.86629667934844, 148.93434023653597, 148.95958746111066, 148.93349040260549, 148.93611182970545, 148.96769915389342, 148.89030032692412, 148.91080634134624, 148.95470972631736, 148.93137209645852, 149.00970878270712, 148.96895356191513, 148.96601849842307, 148.99950097725286, 149.00751264813917, 148.94566888065248, 149.0047383077868, 149.03704251317995, 148.96064188409144, 148.98798196833374, 148.9319152078497, 148.97008310249308, 149.0288701788741, 148.99029552033463, 149.01608262088524, 149.1024570456269, 149.02477174801535, 149.07841823675628, 149.07170039625728, 149.0867259743739, 149.02897353286005, 149.1131290917239, 149.11334981173047, 149.14298915579704, 149.03178683848574, 149.0559763532237, 149.01090574975876, 148.9882054668631, 148.96101258343566, 149.01289619303643, 148.97024587325407, 148.9596647580347, 148.99102703901528, 148.9903852373428, 148.96460540780225, 149.01699629029054, 149.03127122206772, 149.02348766943555, 149.02198005257105, 149.02220764401244, 149.01903652980695, 149.0872658847027, 149.09111293991455, 149.04173501591865, 149.0347587405155, 149.0349580872635, 149.0691392491657, 149.0496164864615, 149.07333622992797, 149.06618574709668, 149.04577549398346, 149.06103221272974, 149.06858812001997, 149.09088598234504, 149.08196850102593, 149.09226574234546, 149.0614927552303, 149.0537551416555, 149.0363901758535, 149.04020527601864, 149.0871636797205, 149.05626570119696, 148.99016685431627, 149.0755538102608, 149.07987434458227, 149.03247925603387, 149.06439332689615, 149.01787799755348, 149.0937475448172, 149.08405392539734, 149.01876991273028, 149.07748434648, 149.08060119388642, 149.02989078986863, 149.04971127638933, 149.07961829062594, 149.0340035195167, 148.98106919138996, 149.05791825099448, 149.08513057020198, 149.07349841938884, 149.03615398474568, 149.05033760207783, 149.00864737022016, 149.07783899715267, 149.00479821186946, 149.0486185241152, 149.0500055448765, 149.03630212016583, 148.95363752216312, 149.02490575451824, 149.05984497987143, 149.03559661178298, 148.99251169902666, 149.033899479749, 149.04900320711295, 149.0599590537062, 149.0259546498039, 149.04338022963015, 149.03045800186638, 149.01513317750533, 149.00859978662183, 149.0122337010987, 149.0190294561759, 148.96545486428366, 148.9977417358616, 149.03043323584717, 149.00596288324573, 149.01703768704968, 149.0580596580541, 148.98484722568492, 149.02619573147643, 148.98859775463475, 148.94038189174353, 149.02213039061778, 149.0149243396453, 149.04375297329005, 149.01874454496337, 149.0117982249559, 149.04105982290093, 149.0224172800059, 149.02557378260207, 149.02878349106058, 149.01307599963062, 149.0987103037027, 149.02192858891286, 149.03185451657146, 149.0514910279735, 149.0271649053799, 149.061745555299, 149.01318291759753, 149.01995697455405, 149.05679267763298, 149.0928961748634, 149.06066369965467, 149.1085772367114, 149.07011557410732, 149.0828358381236, 149.13889107099124, 149.06306822117048, 149.07509406957686, 149.14986276557403, 149.12985746956502, 149.08581746643824, 149.07840502412782, 149.0820423283356, 149.0974489748778, 149.06304434161794, 149.05620426160633, 149.1030128356127, 149.0781914476084, 149.0687931313038, 149.0732643008499, 149.04544426859596, 149.09620463570042, 149.09559400592758, 149.11035266298424, 149.1084456963428, 149.15329141584704, 149.15322502413628, 149.19035495467188, 149.21181792557886, 149.21414544664844, 149.24485467399842, 149.2072026715565, 149.20548388139812, 149.23088476557987, 149.15809747265743, 149.19949066606273, 149.16729359790756, 149.17671447522292, 149.14321684654053, 149.16028167582328, 149.16687769172472, 149.15010461458877, 149.2017162027282, 149.1859521884744, 149.21996357820979, 149.12924978537603, 149.17888484490183, 149.18028516399008, 149.15643265404114, 149.19809455163747, 149.22771490232867, 149.16181413559386, 149.2068100557111, 149.15004108311715, 149.15651704222816, 149.17029176248926, 149.17860738797492, 149.16907204115847, 149.18744515163553, 149.2165378520842, 149.1838748117835, 149.2224968812087, 149.17820305646615, 149.2408228900965, 149.1876812531171, 149.22410480026608, 149.22735776282178, 149.16953573291602, 149.25635836013458, 149.26365505926935, 149.26448598994529, 149.28739091043562, 149.26255160012389, 149.2739226928056, 149.1847520334779, 149.2452777854825, 149.19660094356624, 149.1444577868095, 149.14462284856185, 149.10980442876016, 149.08266981951192, 149.16136859424685, 149.06560411358518, 149.10339731392364, 149.16912060429271, 149.12129108566887, 149.0623302979368, 149.15304462742705, 149.16386080978694, 149.15950458274816, 149.15424556411193, 149.12034933126432, 149.12416966158224, 149.17101230892965, 149.20797178163124, 149.13253217932672, 149.12894762368873, 149.09156477411253, 149.12664600547782, 149.15386072032294, 149.15381560047848, 149.16244311487907, 149.12318358599154, 149.0970412287793, 149.12289457267624, 149.14044621896892, 149.14790398137285, 149.10678297974528, 149.11198521769256, 149.1307124603149, 149.08613076653057, 149.1362212509587, 149.0983997118927, 149.12722192717112, 149.18776261111137, 149.1342560713543, 149.1412944014641, 149.13310665348476, 149.16266324088025, 149.1578409805154, 149.1264658319087, 149.13360690585776, 149.17992890852867, 149.1589371534196, 149.12131274737558, 149.14587654822898, 149.14614176138988, 149.132402410173, 149.12490010116923, 149.17425586984655, 149.1687370600414, 149.19595181747587, 149.11459064543538, 149.12119784377035, 149.15114172973674, 149.17780725798625, 149.1567908992616, 149.17708107109027, 149.15001686153676, 149.17807984913892, 149.15520730343826, 149.12072356574976, 149.2162424488928, 149.17750585496321, 149.20042327651137, 149.22185644800356, 149.1702281012202, 149.21246181362739, 149.24607291117707, 149.25524291235922, 149.23178612038123, 149.22318213544483, 149.17348202076943, 149.22004649292668, 149.2332372159222, 149.22712088379208, 149.18648193049302, 149.19899844777885, 149.19761613268346, 149.26572576357844, 149.25831303696788, 149.20063541320332, 149.2196592410537, 149.22603948231426, 149.22933080866395, 149.2295312052743, 149.23538156819473, 149.23804245413734, 149.2464436808365, 149.22572676566193, 149.26589779592442, 149.26409429761762, 149.24479921699705, 149.2632337253924, 149.2930562871374, 149.25631457166216, 149.2486307506165, 149.23127172673594, 149.22105749036444, 149.26925244611164, 149.22237102166727, 149.22975643997822, 149.2546562332551, 149.30283041108683, 149.2691316039959, 149.3271298115825, 149.2423437572174, 149.20696103464354, 149.24356350566615, 149.2567978483493, 149.28555843699584, 149.2528401609617, 149.27311679847654, 149.26389402455257, 149.26074397925842, 149.2339760917883, 149.2439689309263, 149.2014038652474, 149.19689308193526, 149.21562359983926, 149.22262271143518, 149.1885787657788, 149.1824490285883, 149.24083435764257, 149.1979053142952, 149.2236160248298, 149.24527717845774, 149.21569895254106, 149.1928575715189, 149.20731662264257, 149.20766748084975, 149.197532004081, 149.24442216904868, 149.21517964721468, 149.24626882907518, 149.22722254811845, 149.24058319277248, 149.22979773474, 149.19398269817881, 149.21726417316833, 149.2885740697943, 149.21104576551292, 149.2494260890451, 149.28619712318698, 149.26188649243315, 149.2917105871475, 149.28495309395075, 149.24986718529846, 149.2631034180017, 149.23047818795823, 149.25367307336907, 149.28247569405937, 149.27132936278744, 149.22822897751163, 149.26478367830126, 149.23398884974898, 149.2450915141431, 149.24401544758263, 149.27747483802995, 149.23533160908923, 149.26263709345696, 149.2247684597085, 149.28879995563608, 149.27469167167072, 149.3192765794205, 149.2627215379994, 149.24714567020126, 149.20790181169795, 149.2899962099853, 149.26585136145815, 149.30845263070339, 149.27664176896909, 149.29557878185264, 149.32514488966183, 149.298499667209, 149.25881532392907, 149.2490233022083, 149.29009147257443, 149.26699051563162, 149.22849397812914, 149.23878329454357, 149.30783766551778, 149.3333163901853, 149.29379126184438, 149.29324878914483, 149.3291366906475, 149.2625478701535, 149.31325206558103, 149.32561750502555, 149.33719678169206, 149.3422556043448, 149.32166220086853, 149.39398913420416, 149.35675011320268, 149.33014597191428, 149.27269285813213, 149.35461179743865, 149.30430083189756, 149.36829214189328, 149.35112024760937, 149.35450383231154, 149.3474444326377, 149.3160106586865, 149.3173485082934, 149.3652601078603, 149.34081202007656, 149.35848498981775, 149.31989272129695, 149.34212021151316, 149.30889576216416, 149.30790887440693, 149.35444200807848, 149.34046186221664, 149.39553765650763, 149.32377752755062, 149.35136670052637, 149.41035000577568, 149.46645244810207, 149.43745349508956, 149.43411641229315, 149.38690162585843, 149.4289149161461, 149.41929906477247, 149.4275381755288, 149.42323463467628, 149.42563599877934, 149.4678003748178, 149.41429839731435, 149.44550004162772, 149.4116415178076, 149.50137447820734, 149.4171802114587, 149.3906726026194, 149.3472287051886, 149.35679583601058, 149.33993068391868, 149.37143464615698, 149.3556624790852, 149.38697532434495, 149.38814627061728, 149.35403118081265, 149.4457534728328, 149.3661123641204, 149.45479239066555, 149.38753301051247, 149.37688035551608, 149.41715887383617, 149.47832808023585, 149.46144024278536, 149.40677284390097, 149.38218097276211, 149.41504756707258, 149.3953475465939, 149.39054805731644, 149.3937722502196, 149.3933174312605, 149.3945679514685, 149.39527086397143, 149.39471748733723, 149.36723004521204, 149.3602481313876, 149.3574656869541, 149.40041055420193, 149.3949325292959, 149.33577296627948, 149.41159086494434, 149.343980003419, 149.39708384185803, 149.38439743192714, 149.39614667955115, 149.4398375375278, 149.35285664779946, 149.36805449646687, 149.4195909948574, 149.41304558927573, 149.35344026840053, 149.41880310255354, 149.35917071434844, 149.4196570604121, 149.39729763462134, 149.37996422843887, 149.3830132427373, 149.35767549736187, 149.33817163817116, 149.40251732219042, 149.37882477990618, 149.42196205721473, 149.37344448192525, 149.44688959807596, 149.3519544297482, 149.35478968616908, 149.35249698643548, 149.39575429630278, 149.3852818853974, 149.37165742053796, 149.39987243424125, 149.43621167083492, 149.35192001293095, 149.39329140073667, 149.41007849409678, 149.429828780745, 149.37791949720412, 149.3735375117831, 149.42884686517476, 149.4670008972426, 149.43973464009986, 149.3855274710041, 149.36863703792707, 149.39927517138406, 149.45027887488092, 149.42909837202208, 149.45321898333296, 149.4426698593789, 149.4126446449037, 149.44868481281296, 149.4209604444054, 149.4618357666596, 149.44524909880764, 149.45641793666422, 149.44077721955435, 149.46731374824859, 149.50629140298287, 149.4676280273618, 149.46418932658003, 149.50959137238942, 149.50150738898031, 149.46457329869554, 149.46586239571056, 149.48612587955728, 149.45857267631277, 149.4848253739346, 149.49855939767562, 149.49149893418783, 149.50703320077685, 149.53743935098032, 149.46105264130546, 149.51081608493794, 149.47938923534224, 149.45430260342286, 149.50821105011724, 149.58513090653236, 149.53456146598893, 149.5321190475089, 149.46213210644348, 149.50751227367164, 149.51370705846432, 149.52267701673713, 149.48723402287794, 149.49175006011725, 149.4685965317919, 149.40838574617243, 149.4026210478646, 149.36878224044852, 149.41460282262722, 149.52151567299506, 149.4409227497573, 149.43567555574046, 149.45088519921026, 149.4522598661094, 149.51075845736855, 149.49696282760058, 149.48266770281145, 149.4195668450681, 149.46763182238666, 149.4601178200516, 149.4692844362456, 149.4799837243497, 149.52927976903754, 149.47870505260724, 149.4466667283254, 149.48333071237616, 149.44290276808454, 149.52822961194693, 149.51097915163623, 149.46538786945726, 149.42101394673708, 149.4691213598069, 149.400632823687, 149.4742215132811, 149.509475427736, 149.39220760017741, 149.4102700354872, 149.44303785767437, 149.47783968742053, 149.45841479365697, 149.5140830088152, 149.49913045087047, 149.49138074539906, 149.44314348818511, 149.5069412972503, 149.4649566724437, 149.4857162671352, 149.47780413262498, 149.4982980140414, 149.4983541986427, 149.4503414372707, 149.53747341163412, 149.4688109432044, 149.45816034988118, 149.46770860780205, 149.4949495416449, 149.461977116028, 149.47154039517218, 149.48433902066859, 149.49663572924902, 149.46176882443467, 149.48898307826707, 149.48661752131815, 149.52646114560105, 149.46324362573478, 149.4619589850796, 149.44970392319107, 149.4756525918805, 149.501282483813, 149.51180476258722, 149.48817262967106, 149.40875005197913, 149.45816443965816, 149.56969119205513, 149.53876461910554, 149.52425528374104, 149.469246091349, 149.47589369925842, 149.45310051902555, 149.43561657758212, 149.51634657607062, 149.53615140263835, 149.54890386688194, 149.52957934070815, 149.5345517270083, 149.55331545362063, 149.50578642212008, 149.54467579537155, 149.4985878774712, 149.5041240163851, 149.4973325813401, 149.5619610798515, 149.53377813304255, 149.52425071393583, 149.56732209911024, 149.52653650011328, 149.53815745672438, 149.54971246833452, 149.60204388337843, 149.62129052844796, 149.6384384106573, 149.55589287199533, 149.5809310281065, 149.63509127226322, 149.6942745867138, 149.62600077658414, 149.59844030250918, 149.58737433061108, 149.59478580941106, 149.52617427339885, 149.50984432022912, 149.56865601916735, 149.48536000110963, 149.4042368338355, 149.42811160286914, 149.37937235070333, 149.33168435736127, 149.3357393553154, 149.34989095076148, 149.3493945836029, 149.36630354906248, 149.3940532298309, 149.49273231622746, 149.52518767103027, 149.5348958646217, 149.59623740408617, 149.6645858765213, 149.720898620814, 149.79469959761343, 149.8195798568072, 149.85621622121434, 149.88629912815156, 149.94836546908954, 149.99548664258924, 150.02034070683956, 150.03618617161396, 150.05515348140753, 150.07630804213096, 150.09221329464546, 150.1556167599366, 150.20121739853857, 150.22945241892612, 150.18213891544178, 150.27722465657183, 150.24357754519505, 150.33257835936453, 150.29911114396327, 150.31472437707046, 150.33990571270107, 150.4151935618149, 150.30545227813315, 150.33203383019313, 150.3074631415586, 150.30656344260856, 150.23205677557578, 150.28351339611655, 150.27066002134018, 150.22772117244594, 150.25444164195238, 150.2269492081234, 150.20842877198166, 150.23594176650232, 150.25127425474003, 150.18926331926525, 150.16503545575418, 150.17446735807758, 150.17889831995643, 150.23869575464067, 150.2262411249232, 150.2800909557284, 150.20585342427168, 150.2428631470046, 150.24224299583398, 150.23312155435917, 150.260281817636, 150.2903941125653, 150.29398506311458, 150.3369888716356, 150.2848005689454, 150.282043583893, 150.28404750137415, 150.29571434509705, 150.27584152929768, 150.27428188787292, 150.29374185859595, 150.319204484019, 150.34828147244255, 150.33651179559237, 150.28866808021178, 150.28001071563838, 150.27196101976722, 150.3079141212026, 150.2371247755462, 150.28858756644667, 150.3362288439058, 150.21358851409664, 150.2983273049793, 150.30643760566892, 150.30471694627153, 150.37594767011834, 150.3413922968508, 150.30825414277862, 150.2966832481167, 150.2599430309913, 150.2735206117021, 150.3815349772365, 150.37881098970178, 150.309115683965, 150.29449628976326, 150.30291384120767, 150.35619913768005, 150.32104672482834, 150.3247090338075, 150.35804311467987, 150.40515312349743, 150.42002616409417, 150.44029736889553, 150.31998208547262, 150.34981202833893, 150.37369855420573, 150.42689669199902, 150.40159365496078, 150.4301564919905, 150.41398373833417, 150.28667278860397, 150.38665194534016, 150.40829386623543, 150.32662472246201, 150.36315196513002, 150.34969415783763, 150.36881328697484, 150.45594664793367, 150.36107609403354, 150.347711856972, 150.44361923864366, 150.47304002034542, 150.5164666919526, 150.46510262573966, 150.40866491057812, 150.44219862909227, 150.40845493443243, 150.4268566621679, 150.39983642614223, 150.39984102116173, 150.40845005315953, 150.39977539929015, 150.3880075599691, 150.44720123546983, 150.37660657691706, 150.39821581270655, 150.304531936902, 150.3230155321242, 150.384820867379, 150.38398439846756, 150.39615926790378, 150.34932076517882, 150.33495482011196, 150.38395222092277, 150.34972528615063, 150.34763664926305, 150.36988997888298, 150.34146566860736, 150.34997481597176, 150.300600323251, 150.34995218538214, 150.3722888114667, 150.29515394097197, 150.35781749625716, 150.37115922271772, 150.3667962232934, 150.33395084542178, 150.3571217357556, 150.36978502375274, 150.3589453303698, 150.36847285632427, 150.28065153557776, 150.40087374601268, 150.3846036536053, 150.33866653114214, 150.24807865401925, 150.29988454255763, 150.25904654619993, 150.30737002563689, 150.36526542025837, 150.29789592300446, 150.26441361986645, 150.25524359270378, 150.30502811883383, 150.25616232141041, 150.3046680775949, 150.3053515893957, 150.29497722379813, 150.35291669749205, 150.32089686761913, 150.26841456261806, 150.34529291024074, 150.32686815472064, 150.29428452617475, 150.31730031520667, 150.25957368190112, 150.29672253843881, 150.3445715738622, 150.3183492386256, 150.2534793088481, 150.279156138414, 150.24307874186653, 150.2522572034231, 150.29531900346927, 150.33955042780082, 150.25778100045721, 150.31080731333074, 150.28984743898945, 150.26882614277665, 150.30761448521497, 150.32509807001898, 150.27164212199045, 150.2433841663357, 150.2758413600351, 150.32388020388075, 150.41624574452337, 150.2949045439218, 150.2705945376793, 150.32273973109258, 150.34637256352406, 150.29529326976385, 150.31573135969472, 150.33431280146365, 150.32151519771583, 150.3786407317998, 150.36670395916934, 150.31759537700418, 150.42373069504768, 150.2635005055332, 150.35008897002749, 150.31145344324105, 150.25612841275262, 150.30336824411688, 150.29285727479265, 150.39640818213337, 150.3269003362773, 150.35585206684908, 150.30900347833318, 150.3607776822924, 150.38869166481769, 150.4151350801511, 150.36818635515053, 150.3460090274473, 150.37754257851316, 150.33170134638925, 150.31911435365825, 150.37247165574786, 150.32488664382612, 150.3399331091319, 150.35568702977568, 150.3507747731104, 150.35556346096985, 150.38621700066554, 150.37105337331752, 150.37215557239773, 150.40031157688412, 150.38830561835152, 150.3831565323904, 150.39223817118554, 150.3973559848702, 150.3983390209842, 150.3491562546207, 150.3837681883123, 150.36567550575094, 150.34373396806322, 150.32564801552465, 150.43562487857676, 150.35816197778732, 150.41985347172115, 150.347598672963, 150.38479109253333, 150.38090173902188, 150.38031079937676, 150.3709108558486, 150.4170821962163, 150.32070590409313, 150.33800831792976, 150.37527510125577, 150.34780598967362, 150.36163681918623, 150.4134559347277, 150.4214610774012, 150.35775800300473, 150.33465352940632, 150.3299273041533, 150.35559777910305, 150.34521449399935, 150.42054626610238, 150.3602527538054, 150.37602700141016, 150.27953403296132, 150.38040256539492, 150.36929861461016, 150.38286646999526, 150.3616682923672, 150.36763522698897, 150.41563656550701, 150.31893420578368, 150.3546945133987, 150.36684634374103, 150.34691642171816, 150.36752978378152, 150.3765142127943, 150.33133655037255, 150.35573131665194, 150.3785689515663, 150.37187820732126, 150.35759318148203, 150.35362200939244, 150.39294169872744, 150.31650598458006, 150.36496174913907, 150.3677368652197, 150.39878835526162, 150.36021634615386, 150.33052225908708, 150.37711648896328, 150.3615778210207, 150.35813871784913, 150.36062997221796, 150.35574803222391, 150.36912971933586, 150.3991935483871, 150.3304472371096, 150.3689618355188, 150.30736856694077, 150.37476654523937, 150.3323154675561, 150.25046047316792, 150.364412577779, 150.351858526487, 150.3587459905159, 150.38037660500845, 150.27087556624815, 150.35873222770724, 150.4152972355452, 150.27749223018063, 150.4333889986261, 150.34078726039297, 150.36073658764312, 150.3767127087147, 150.41846355888705, 150.40164487674983, 150.3775343731947, 150.37617630202072, 150.3733734566617, 150.42340559337083, 150.4235191855116, 150.39622379884912, 150.48721733537548, 150.43010051691775, 150.46658062009047, 150.43859016332797, 150.36411090272452, 150.40853892486837, 150.38929502227313, 150.3857909305582, 150.42025735515102, 150.42924120456635, 150.3555008475633, 150.39563973771885, 150.4321861927104, 150.42465994100405, 150.39611253858808, 150.45749738694488, 150.3891420279675, 150.44657420249655, 150.41174866796982, 150.36544713945284, 150.4281197711074, 150.44859130515175, 150.42824400319768, 150.39255190383355, 150.36512340834173, 150.42425278487502, 150.46831552285164, 150.43090779696107, 150.43237722909996, 150.45909527947785, 150.46695202392564, 150.39149631901276, 150.39826597872428, 150.4668959746282, 150.47093993775982, 150.42397893180558, 150.44520696714682, 150.489931427356, 150.47116149194667, 150.4560251852605, 150.433136915078, 150.47946966578957, 150.39061034599055, 150.4781752179241, 150.4237791068507, 150.40663967536491, 150.44706758294103, 150.41419133522268, 150.3804309153833, 150.40381788768198, 150.4234542445285, 150.38849499440744, 150.42784465893692, 150.380430512094, 150.39024863755495, 150.45997502197142, 150.42072781737997, 150.44113022567518, 150.4004658944897, 150.39871565486345, 150.3988351937877, 150.4688756181163, 150.47727977272834, 150.48039179397966, 150.3868278141104, 150.43804179888795, 150.4111312501734, 150.42804294949457, 150.41759567945476, 150.4216108257551, 150.4233494274562, 150.43525808869109, 150.42654587327795, 150.44311770473, 150.40906359493016, 150.45725691184023, 150.37550028191404, 150.4251727423249, 150.47511544619144, 150.4622885001434, 150.4812510120521, 150.42705934578143, 150.37372728995376, 150.4096794922173, 150.40393398668638, 150.4828663174844, 150.47193583748458, 150.4322508450437, 150.407048140408, 150.40965760899724, 150.44244414635276, 150.42751787084902, 150.41983035569834, 150.390372181372, 150.40311933730263, 150.42728197539998, 150.43088919516416, 150.4084936801324, 150.39231636746842, 150.41019820336302, 150.3844041532217, 150.3819241847713, 150.4153548040993, 150.44850012720588, 150.39967823063836, 150.4415733350597, 150.41348381101213, 150.43653554379603, 150.41953401039643, 150.43810554453339, 150.43045448240787, 150.46808737001814, 150.4479624404459, 150.4166570336017, 150.39450241085834, 150.46652320792262, 150.33605000900937, 150.36306883294517, 150.3764089860846, 150.3792932842584, 150.42146868090694, 150.4061839555673, 150.38282903920643, 150.41766761907402, 150.38497841380777, 150.4268716212779, 150.37300464927117, 150.44463972693342, 150.43433979186605, 150.45446475219967, 150.47170212667572, 150.4099234807038, 150.4696398020992, 150.40418374466864, 150.47159892175313, 150.44672246691962, 150.53777753103213, 150.4890023257642, 150.47912080797616, 150.51099256983704, 150.4846787768919, 150.48903121387283, 150.52982430169405, 150.47997041556883, 150.47082645659682, 150.43595360229216, 150.45927230535253, 150.4938964617974, 150.47282852323406, 150.49660062025393, 150.55587884282687, 150.57683357313704, 150.52212266637076, 150.5425427138002, 150.54463026581652, 150.60209596076436, 150.5179217849201, 150.49517179533404, 150.46208735598188, 150.4685179280291, 150.54712147207488, 150.55874843901762, 150.49805620143394, 150.53740870425963, 150.49964622805112, 150.43646051397226, 150.53391398466192, 150.5435803262916, 150.51568028044602, 150.46905858204815, 150.4988299063, 150.45969173585814, 150.4231149510257, 150.46590084363805, 150.46726643150706, 150.50329829950226, 150.52099619092579, 150.4548615767351, 150.45414362597327, 150.46669718153572, 150.47583400762917, 150.5444615690794, 150.44672586015537, 150.51474004757543, 150.50260251599678, 150.49992597870036, 150.52314176528827, 150.48432975958113, 150.52630166274082, 150.4479205192692, 150.42264763110825, 150.5164385716533, 150.45907029006617, 150.47671030112403, 150.4503870806626, 150.46687545392726, 150.4647456654886, 150.49613428892664, 150.49215337922865, 150.508630104024, 150.5466169764589, 150.4520911562864, 150.4018486851227, 150.485908033323, 150.4763166657417, 150.44484714562424, 150.51297709923662, 150.50165385985446, 150.42174415380347, 150.44761935576315, 150.51228101024498, 150.4898201819923, 150.4561132513516, 150.432362704937, 150.47195948289817, 150.4487271987272, 150.4894614341704, 150.46777065938895, 150.4750309915444, 150.4798954647425, 150.45212795472202, 150.49563250085592, 150.4553669285658, 150.45478842694706, 150.48276643676246, 150.49430327925725, 150.5224426901613, 150.4515727864487, 150.51360780285574, 150.5243033382384, 150.4633847434504, 150.485553196705, 150.50891006661732, 150.45723453045827, 150.5313522494296, 150.50254972189057, 150.4876863928048, 150.5002776132662, 150.5293067071365, 150.51645219354867, 150.48240562131954, 150.4338143834128, 150.43279952660097, 150.50197061653466, 150.44722742297114, 150.51551223213292, 150.4579482461291, 150.45749953763638, 150.5001410907005, 150.5153243677108, 150.48269068002386, 150.55280624288372, 150.49174960227904, 150.51619126042021, 150.48723795955374, 150.49499784928332, 150.4483362683787, 150.50733974655444, 150.56340563780506, 150.52717959633165, 150.51696287318785, 150.52871547363986, 150.5683787587024, 150.49752844941992, 150.53926929232935, 150.48700746261756, 150.54330515571718, 150.52364235133047, 150.4846361933828, 150.47836961898906, 150.45499965336353, 150.48730713407474, 150.45739504147508, 150.50889900279367, 150.50091343418882, 150.56279437756208, 150.5448128154244, 150.58742116246896, 150.50081360946746, 150.54831038566883, 150.5354037554343, 150.57525697843323, 150.6045561396365, 150.46798712186649, 150.59710366206306, 150.54442584440088, 150.52807284465018, 150.56125423352395, 150.493214949297, 150.53833632378237, 150.48556292125483, 150.52016393897622, 150.4893994893995, 150.47192013908156, 150.47236770939753, 150.53534381448546, 150.50692764256604, 150.55186971697327, 150.46676718296897, 150.45512491622176, 150.50486999472764, 150.49119578285396, 150.47097546656065, 150.4857271016282, 150.51922890049838, 150.47262690196914, 150.45626759489105, 150.51138339994077, 150.49318806130282, 150.4632110503267, 150.5365501474039, 150.55350645743647, 150.467964100928, 150.51966871790125, 150.51856272466102, 150.5442954760097, 150.46921265997253, 150.51761619190404, 150.50636927944345, 150.53492795068996, 150.5955390128052, 150.57673593911306, 150.53841454383888, 150.4720527914838, 150.51886094332468, 150.5613516240408, 150.51805450819103, 150.4721284486825, 150.50984393146496, 150.46663614248317, 150.53463761342655, 150.58005990546602, 150.48398973196734, 150.56809151113788, 150.5522922271252, 150.47590782284442, 150.5393347864921, 150.48678229748037, 150.53429925311664, 150.5212301256779, 150.56125519680737, 150.52180814386665, 150.48837069479836, 150.43574019732435, 150.53823552546953, 150.5210491238788, 150.50679562229575, 150.48455482366873, 150.56230472637392, 150.51700799859367, 150.4924224556146, 150.47387987238173, 150.51544330975, 150.5225919293716, 150.52631384177002, 150.49507834425236, 150.54363515238992, 150.48226084624525, 150.520816273658, 150.47210883724802, 150.48673961381465, 150.52939162935277, 150.5701585097767, 150.5029041268197, 150.51256395311185, 150.51825769914123, 150.5201930016099, 150.5252242541439, 150.56240686406085, 150.5623701345279, 150.52272790342724, 150.51855757357123, 150.5512651463628, 150.54348017152452, 150.48053670801826, 150.53329201796294, 150.56815584824133, 150.61546757262138, 150.5481590070384, 150.61404117671557, 150.53661694394864, 150.53934054753978, 150.53004059665057, 150.57156669534885, 150.53206050040922, 150.50360257518267, 150.58176889127398, 150.4991102339276, 150.51412630469554, 150.58228053051084, 150.58019443879155, 150.59281257083117, 150.56255202648956, 150.483011895138, 150.64297382974294, 150.5277452987582, 150.55735810685894, 150.5175139520272, 150.57274954921633, 150.49515697677103, 150.47889841310894, 150.54311579803507, 150.53951234385394, 150.60178767126456, 150.53257830946737, 150.55405386666914, 150.54506257278592, 150.5231198517964, 150.55619581893126, 150.54416997051945, 150.64018172733498, 150.60868418983483, 150.5722971504663, 150.6097368055877, 150.61133644431905, 150.59545910745422, 150.5554538477897, 150.5266784672764, 150.5367857489609, 150.5474261884287, 150.53775080539674, 150.4990066622929, 150.58870467855195, 150.55621534377585, 150.51337308741276, 150.5654705202312, 150.55230373099488, 150.5368305738137, 150.57594427330503, 150.50644687222714, 150.56512870325403, 150.5704077479511, 150.58049687372824, 150.6813234633742, 150.60197713846907, 150.586415813377, 150.63402951643582, 150.57621192641034, 150.58368562732997, 150.61691217645236, 150.59570815053405, 150.5019280918826, 150.55865221353986, 150.57303589107764, 150.55291092168008, 150.57890743550834, 150.5813729708224, 150.59268103065307, 150.55270182126023, 150.63961870193845, 150.56902581182348, 150.59467737607227, 150.57720591636064, 150.61725909469592, 150.62003776344164, 150.5799415242554, 150.48693598772618, 150.61593320899496, 150.60150007171842, 150.525960756029, 150.5481427355803, 150.59598824699813, 150.5420764269367, 150.5416655109607, 150.55107514450867, 150.54061001715297, 150.5367451580539, 150.56267691624578, 150.57213490837444, 150.57771600112864, 150.63658284852104, 150.58321347805375, 150.60191511506883, 150.5434186619572, 150.61365371181665, 150.63379427799222, 150.58521978403124, 150.62742739222773, 150.54628054081047, 150.55706491584982, 150.61140258346288, 150.61677067768304, 150.63493216605897, 150.53581383738506, 150.57441731409546, 150.57119538327083, 150.5867075551115, 150.54319338451796, 150.6335171545949, 150.55167886990608, 150.6283440521908, 150.60602598555946, 150.5944030075049, 150.66570742517686, 150.61319960788666, 150.6400658698146, 150.6468370358719, 150.5930797575511, 150.60938352427712, 150.64334040890319, 150.64978889294815, 150.6489597351128, 150.67398764267347, 150.7104065491883, 150.7415052529804, 150.70513247329725, 150.78307118323968, 150.7775211950687, 150.7838170510495, 150.7434845548685, 150.71959229898076, 150.78024422961286, 150.72574822621274, 150.72075998391668, 150.75652427265285, 150.66954641632864, 150.7089844652478, 150.75579164412883, 150.71368096089768, 150.75812179220418, 150.7759106362312, 150.78661867907684, 150.7348914811802, 150.6914103286732, 150.74845131106918, 150.71512692044593, 150.7121535674007, 150.75337152156524, 150.79699115944914, 150.6978121751184, 150.81832864388582, 150.6890677856443, 150.75123045610138, 150.72933902451433, 150.68833545953743, 150.71420643985812, 150.67775040102072, 150.64859654962, 150.68838595062732, 150.675676925781, 150.66376707039035, 150.67455166958845, 150.67394220273445, 150.73415248430527, 150.69185731675145, 150.69191895819256, 150.74850906599002, 150.7198704003703, 150.70269857645812, 150.74111928898765, 150.73541594353813, 150.80197116431157, 150.82098413801089, 150.87100525374572, 150.87094547964114, 150.84129952735202, 150.89156018284805, 150.92327968794876, 150.96821910190462, 150.99350312332018, 150.96075543699752, 150.97876617781938, 150.96095555174824, 150.9683355560495, 151.02777713414494, 151.0273817134069, 151.0328128472994, 151.02543946148896, 151.06823685197446, 151.0998272772316, 151.17651060757524, 151.23941705862745, 151.28291982966118, 151.38976073497474, 151.449564267126, 151.49149529162307, 151.58688977089054, 151.67361262317183, 151.69226744939724, 151.7783412058905, 151.8037319581902, 151.85831423478484, 151.93931001264374, 151.99300031964125, 152.0282520956225, 152.0129380603097, 152.08411440114529, 152.02405695531618, 152.11111985592657, 152.1433877503763, 152.14480094848187, 152.14458244190678, 152.15926088869335, 152.15030483147473, 152.16362701929353, 152.14329496949102, 152.15506721724316, 152.20723612597214, 152.17308235512027, 152.16096673548554, 152.17918119556006, 152.15721429894427, 152.1787863486225, 152.03572023390947, 152.04232659748772, 152.04835804864047, 152.01287992777608, 152.00830188679245, 151.95754094794668, 151.9050350925082, 151.88934024243548, 151.90103523118003, 151.9155733187605, 151.86409451879825, 151.85274295976745, 151.8738100088902, 151.88431417046047, 151.81169801716757, 151.8628556614168, 151.9111098762688, 151.9004981573733, 151.86480495017886, 151.84674740708527, 151.8770678796685, 151.9049084866271, 151.90581158615583, 151.87184041219757, 151.90766781885233, 151.91618456981533, 151.90095014185022, 151.92338776870523, 151.8753221038412, 151.89441146120137, 151.8991190692332, 151.8219952234606, 151.8300249976854, 151.81041633877405, 151.8029477523851, 151.79008430516524, 151.7616770071303, 151.75676188888272, 151.6775196956091, 151.67485003332595, 151.6881108585239, 151.66064494031502, 151.64906229890695, 151.64351217162547, 151.61226256957372, 151.6290946978467, 151.58901896522192, 151.6491697861458, 151.62002056621952, 151.5511515404023, 151.60134825213703, 151.5694724310603, 151.55738904845734, 151.48811668017132, 151.49033169646995, 151.44868469803632, 151.44898299587638, 151.37835948063494, 151.4105616280309, 151.37201556492334, 151.28812107631623, 151.3085426251002, 151.25952448226187, 151.1893580682339, 151.22965882303905, 151.28503226045686, 151.27876231313013, 151.25985018448816, 151.24923409205726, 151.19340245139122, 151.24254189465296, 151.26637443294766, 151.27145518929143, 151.31822101076403, 151.3561190278557, 151.26405121577238, 151.35030095619672, 151.2799720199381, 151.30727378055846, 151.2699672963433, 151.3020296570899, 151.30646640784974, 151.26503803786656, 151.35221618914696, 151.30633411188967, 151.31736338278768, 151.33043550793812, 151.3197033427216, 151.3750063726149, 151.37383749218046, 151.38829035471838, 151.39116071759517, 151.3868375094385, 151.41396609227348, 151.41834254041314, 151.5310926940512, 151.47608335416263, 151.55774860573268, 151.56594966310868, 151.6432988258181, 151.62206094716186, 151.68612215981443, 151.70094959418856, 151.76879643525464, 151.83012416604893, 151.83567644661778, 151.8381333765422, 151.82581290089692, 151.87253599062785, 151.92423470097035, 151.85916953735602, 151.85419560345946, 151.81805978577844, 151.83314347632808, 151.8216898486841, 151.82320825750523, 151.83270504330108, 151.84211208772888, 151.80436704261984, 151.90732256435675, 151.85584000740707, 151.89144490037884, 151.88053771457416, 151.8777682069521, 151.86788966181606, 151.82552907848694, 151.85621780857448, 151.76201077498428, 151.7800152767169, 151.7625991195545, 151.84496170721422, 151.8240568353387, 151.75295343023794, 151.76518561742805, 151.77526445469536, 151.78302612078548, 151.7831010049553, 151.84062476832977, 151.7973782945018, 151.80379893444524, 151.74903255073323, 151.82264647428622, 151.7988293640687, 151.80394953780035, 151.74178171266192, 151.7905150055576, 151.76894337473786, 151.75787354193668, 151.81172978154856, 151.7520001111173, 151.73445642615818, 151.75560451972171, 151.82788195554568, 151.8033600911588, 151.75679104373955, 151.71248797098232, 151.8131450223268, 151.74944227938795, 151.7606491811171, 151.83179440611926, 151.7869313183506, 151.80310158644895, 151.82379827729926, 151.88231068348142, 151.85237876914385, 151.84268809485215, 151.87232159816907, 151.82176205621062, 151.8404504579594, 151.86862226585836, 151.85353329567448, 151.88393349107056, 151.9051221003483, 151.92539753100138, 151.93042318486204, 151.90551257656358, 151.91671642758283, 151.89925723673554, 151.95807956129667, 151.95531530697286, 151.97997591365973, 151.96936705812618, 151.96979743025813, 151.98582351878696, 152.00309422565613, 151.99373521199803, 151.9997499560108, 151.96917500671216, 151.98964049699683, 151.95209597467334, 152.0053483116931, 152.00384836247775, 151.9817705318819, 151.993799720316, 151.98600874106447, 151.98988533002353, 151.9953871804372, 151.97163380046868, 151.9806087383407, 151.96049969209113, 151.96233439683635, 151.98659698768108, 151.98451275161568, 151.9432845772388, 151.94635232882294, 151.9413265424239, 151.9722986429531, 151.93586431071844, 151.9049426138467, 151.92699918990857, 151.93246771281767, 151.92593021263988, 151.94942090127304, 151.96124436704847, 151.89150142298527, 151.90049933129404, 151.95673192687397, 151.89941548614615, 151.89606368453937, 151.88485616853524, 151.91411551243715, 151.9129102439476, 151.9614810972051, 151.95623879684481, 151.90475463033687, 151.8842661582177, 151.8970256695137, 151.98411889517914, 151.88889865762187, 151.86087720921626, 151.9250085648941, 151.88012049028998, 151.88589358521654, 151.9151382729537, 151.89546443282268, 151.93031310484056, 151.8649513965679, 151.88527860051832, 151.91082372109383, 151.87756480543334, 151.90424473054364, 151.90371412831635, 151.90947721192035, 151.86625329693211, 151.9588826608607, 151.9155853474495, 151.91556417891096, 151.83173895344535, 151.87786150015273, 151.926145310387, 151.88646724767543, 151.8979489814339, 151.8732667493567, 151.91198366621293, 151.87702512544206, 151.8759307852148, 151.90511685617986, 151.84814033334257, 151.84089584008143, 151.8758356636234, 151.86412723981985, 151.890676059728, 151.89696705982558, 151.86012846855851, 151.83935603589094, 151.87052800651733, 151.89699312515916, 151.93005218534827, 151.91923864025708, 151.90295684862065, 151.89552522068388, 151.85146343832835, 151.8885264258678, 151.88777653383173, 151.8896208434337, 151.9713096153312, 151.94487190170645, 151.98231847133758, 151.93650999379727, 151.95116599857434, 151.9278487457188, 151.97141388508132, 151.9631517778179, 151.95907320890305, 151.95448274584965, 151.98307501435104, 151.96620996111832, 151.9485031381334, 151.99062087492186, 151.9780361757106, 151.95912368891234, 151.99646232421594, 151.9377310733836, 151.97150556553626, 152.0000879979992, 152.01097460414522, 151.99042745334137, 151.9784773039699, 152.00079180229946, 152.0036349828901, 151.99836548345573, 152.0061210504871, 151.98384550206737, 151.96893196693236, 152.02324655237882, 152.00662125933576, 151.98580946251892, 151.98462799279554, 151.98164568391127, 151.9053014880071, 151.9518648995218, 151.9929924181021, 151.93865629845635, 151.91339981951546, 151.87891602777944, 151.94181153214046, 151.91354350824253, 151.99210143517615, 151.95019653778664, 151.96493706831458, 151.96701326972513, 152.00470736498758, 151.99764655739526, 151.9327109119692, 151.99527047684342, 151.9615582322622, 151.93950436642805, 151.96061125260476, 151.96360242866604, 151.97559552206314, 151.98814983646957, 151.959296617391, 151.91891078612466, 151.94881435828097, 151.9475953212258, 151.99858708643325, 151.8968456711279, 151.96283242402066, 151.99472311405765, 151.9251963584021, 151.96713325893788, 151.92762076707638, 151.92419213731236, 151.92029455053736, 151.9612601225119, 151.97523496458172, 151.92823956241267, 151.93444307629636, 151.91963785657748, 151.92755756784533, 151.94625772212393, 151.94490336441848, 151.92755662748766, 151.9071089345393, 151.86181708840263, 151.9330061576925, 151.94120670018611, 151.9432507881835, 151.97272382116532, 151.91800198098622, 151.9601100157893, 151.89497258404091, 151.9526604757099, 151.93961635467525, 151.91944799244737, 151.93236670261066, 151.94588351833508, 151.93356847279696, 151.95817226453093, 151.95350010647064, 151.94732627252023, 151.94576428108508, 151.95177917575117, 151.93025354772416, 151.92114945826987, 151.92701304231113, 151.9216288755206, 151.9929008715303, 151.92950064304813, 151.89627625127207, 151.96560024812632, 151.99947675980033, 151.9907301510865, 151.9526601479891, 151.98951691693637, 151.9691878306511, 152.0004908225445, 151.97734741675382, 151.95960236397212, 151.9784357097243, 151.95173833591636, 151.99985184567876, 152.0057925784614, 151.98310498055915, 152.04804031458715, 152.0396300944213, 152.0612060538958, 151.98539936486773, 152.04722578613146, 152.03829621669692, 152.03954590298332, 151.97786373984343, 152.01155065854957, 152.00236087065207, 152.02515606765093, 152.01449006904664, 152.0226633880237, 152.02452353935576, 151.99063404245467, 152.00666336353996, 152.00042145238976, 151.98577474832604, 151.92616899856986, 151.90814489063766, 151.83900426071307, 151.8807796812583, 151.85507065207327, 151.80760044436215, 151.7397423145428, 151.73889683321994, 151.74470921513083, 151.7338971360857, 151.6908181258591, 151.70593792110247, 151.66524066151823, 151.6204013610166, 151.54280648312323, 151.5044089669825, 151.46003554864333, 151.4348170265954, 151.37000555452693, 151.37284140428545, 151.28245889273003, 151.27330725248268, 151.26984200506732, 151.18705152539235, 151.1323305486775, 151.104819678503, 151.0243034041412, 150.9718216774814, 150.92820017648498, 150.90132496835415, 151.0020258832018, 150.93348215730046]
