[166.55238126898513, 166.48900589704482, 166.7708538905751, 165.94910506673727, 166.42460881343538, 165.16628618203205, 164.333881283754, 164.69464540587848, 164.45464103088568, 164.09637484627098, 164.87059069601486, 164.61368655227128, 165.49191102749137, 165.21291308988555, 165.38565118856593, 165.29028741328048, 165.55911367871477, 165.2810654069527, 164.4817944232946, 163.67617319797037, 163.48638203826184, 163.06077244471618, 163.34215475440936, 163.17662549017203, 162.5518030747212, 163.17567899415548, 162.9018421967327, 162.28132049226804, 161.99035906686493, 162.04349084682187, 161.63414138458035, 161.3930966493434, 161.05286238561774, 161.07270798581308, 161.0810587329253, 160.75282591093116, 161.31452309196058, 161.4252044330553, 161.18112800920824, 161.58217008460736, 160.3697510113384, 160.73787162327994, 160.73197211441126, 160.68257616489296, 160.8503647382648, 161.65415486307836, 162.73220758479695, 162.10810518071688, 162.92213632756238, 160.6016853329812, 160.52937198187163, 160.22905646096766, 160.12741114245995, 159.67329080128417, 159.78381716349014, 160.16581518181707, 159.97423067917134, 160.83091505137037, 159.7287969007232, 160.2263636587913, 159.92866621885085, 159.61188198841438, 159.2116833480542, 159.37621394878155, 158.63855318733368, 158.56240850463442, 157.18394601615, 156.9846741592999, 157.12243105068148, 156.78280302353713, 156.24289476995006, 155.33090123175924, 154.86298822824088, 154.26937245393216, 153.32861315305854, 152.55341344357728, 153.1181993044852, 150.16944901177814, 148.46677589046175, 146.22052218568862, 144.0083537766301, 144.2434982379444, 141.3665523502118, 141.97559920352023, 142.21892390530527, 142.66720272538265, 142.81339993232356, 141.84435729629814, 140.94449995774363, 142.21096533279507, 141.78998133011658, 142.3658430948908, 141.43612597726096, 141.12575206741673, 142.85754830917875, 142.7747370006779, 143.06989519733904, 143.29142204006004, 143.4663876040241, 141.18753049737904, 141.85089539920594, 142.38121153477772, 142.55123161386925, 141.89142311237424, 141.97756820832456, 141.82793997453004, 141.93896407128562, 142.37739300378837, 141.38807700898693, 140.19622450524085, 140.55875916739848, 140.22750162558793, 139.7620084442509, 141.2893698815696, 140.30199565731405, 140.3792878435791, 140.73372307461878, 142.319436970744, 142.59345516080847, 144.02886675490635, 144.5340589534399, 143.89719346566625, 144.93531643619275, 144.09665942733042, 144.60489912991758, 145.07823633632478, 144.38691894685462, 143.94642205660082, 143.48424854108868, 142.30160261131093, 141.91114378039876, 142.3819766212293, 140.8872863398785, 140.7742721328135, 140.96097229740639, 141.08174763625001, 140.8209352983703, 140.86879943502825, 140.28736824808095, 141.677715603776, 141.76737687574425, 142.67618871134044, 143.7726324754066, 147.52444664275998, 143.2219609244923, 146.5398311603217, 147.10893920995713, 147.63032677875938, 147.62764598323477, 147.72211101173153, 147.8615191432904, 147.66212671317504, 148.13777803196027, 147.810845102549, 148.0352667749356, 147.88296795952783, 148.00353043751696, 147.98614954483864, 147.8563316026571, 147.89128999540722, 147.6647077715091, 147.28842675879577, 146.649019505258, 146.16427609235964, 146.45711315031383, 146.273756099426, 146.04036362075462, 146.11591486187288, 145.80823080186678, 145.98152499952235, 145.6290254166607, 145.1192093475221, 145.8192584251435, 145.63725354894282, 145.6948167708969, 145.69303381527064, 146.31361939939595, 144.79426586404625, 144.98823613459388, 143.0824675446672, 143.54279648567447, 143.6554803028933, 144.7641603755814, 143.9662643719203, 143.86595468609642, 145.37117054499294, 145.98238794858034, 148.71104026895705, 147.8120806030448, 146.96864979539407, 145.5191869608731, 145.01585615658902, 145.70275189249037, 146.77849763033174, 146.97831008682581, 147.98066825436658, 148.4312590037152, 148.9150276568089, 150.20835511893742, 151.30015210410681, 151.23439348864392, 152.10553116514114, 152.30856586160266, 150.996556578647, 150.75842128502043, 151.51712953188877, 150.51133201549175, 150.23114771226932, 150.42805956832893, 152.09031207571672, 153.53908739274124, 150.30143630975974, 150.13840955148996, 150.4544811861812, 150.9758146795116, 151.32482234653764, 151.61834452536783, 152.08449352352534, 151.65010683760684, 152.29984717365897, 152.41369663288347, 153.18823815727313, 154.01537900489922, 154.24166773902974, 154.6150416100341, 154.5525438621625, 154.8340798329637, 155.0084433891551, 155.29991718606982, 153.5916642143135, 152.82340139899668, 153.217449904805, 153.42593973958282, 153.25182414704344, 153.4726022545348, 153.45349580333178, 153.40363026163408, 153.3433095841125, 153.29278222272484, 153.717797184371, 154.8298287831476, 154.75734777906382, 156.87648173573376, 156.9531591552776, 157.534118936695, 159.278286996539, 160.1073287888621, 160.66919616960982, 161.06057756245843, 161.59251898136895, 161.3600075707391, 161.31806916644595, 161.12270318564072, 160.94821236946726, 160.7980410513589, 161.28425055505693, 161.6612709408355, 161.0375876062233, 161.53965214085446, 161.12973982252484, 161.70173831314318, 161.58218723323532, 162.1541565817309, 161.65995984410063, 162.01508724985055, 162.08269168615374, 162.23768382967145, 162.36686467065869, 162.03744145310537, 162.26580749093839, 161.89506861063467, 161.9349064124535, 161.90608751185522, 161.8126504476561, 161.9253328114633, 161.5718366653131, 161.58195867297147, 161.892359403956, 161.59909460996778, 161.58603412667424, 161.85283733378893, 161.42650944642622, 161.79962458049715, 161.42326528884016, 161.71109544514732, 161.74201271166433, 161.61929659582472, 161.62559792905512, 161.5483208606174, 161.74589618352098, 161.6151753523435, 161.82861700325608, 161.8055104432927, 161.79149780399993, 161.56087044334745, 161.8461088300533, 161.76437036687284, 161.90561315018715, 161.69025187645363, 161.66131349047495, 161.86238281176315, 162.09016838674634, 161.95893353431626, 161.70562433077225, 161.926919253078, 161.91676077701283, 161.93554354820395, 162.00507380729965, 161.90718737687564, 161.99637372521212, 161.71658848614072, 161.7015709283619, 161.6293009291, 161.81332228666113, 162.1570870269755, 162.26755615961102, 161.7625886288897, 161.70557215013704, 161.87458060468964, 161.96820667564623, 162.224834855603, 161.98896773978885, 162.37132058841846, 161.38304081181195, 161.90378649743067, 162.07280185296582, 162.00056233667428, 162.04260877781454, 161.93750737776517, 162.07410471575463, 161.81379557162904, 161.93960678798177, 161.97127881806927, 161.98625764779422, 162.39425977546966, 162.02915397880315, 162.1061415125237, 162.45084571134197, 162.6027114211817, 162.3519895641907, 162.70863151046652, 162.19846615093493, 162.33674181581767, 162.44934349709527, 162.9116390054548, 162.75640598197677, 162.84692700050425, 163.06466821885914, 163.09041931557536, 162.8694416018227, 162.95234481491866, 162.75685933080638, 162.93757773257104, 163.1663316388658, 162.59564221502367, 163.17163431524847, 163.93299529156104, 163.78635937133475, 163.31057736094021, 163.1439564954683, 163.03931778332714, 163.1342650168642, 162.82790575164023, 163.0115729851678, 163.0155236206988, 163.0778004898085, 162.99536048096348, 162.81883618073022, 162.99622355401235, 162.77640227447955, 162.84920726767737, 162.5287052214841, 162.3150537428574, 162.1279406442273, 161.86210286832494, 161.95447292689644, 162.02598323631463, 162.08318807448683, 162.49992109378363, 162.11727000996348, 161.92280975702084, 162.9703636791705, 162.84865959350142, 162.6450121456326, 162.64742807742184, 162.6592905657471, 162.44726451532816, 161.7674682449265, 162.11259045412243, 162.28827927799207, 162.67074001573687, 162.35924604220057, 162.1423172479694, 162.0632710307124, 162.4745886443755, 162.51016471357926, 162.73039984935033, 162.8934146388642, 163.16476545842218, 162.67191076065006, 162.90217112677078, 162.81641644046218, 162.8835683909565, 162.71538837229346, 162.62317391678704, 162.86688685766958, 162.9316446059181, 162.8468250004802, 163.0299624027616, 162.83842133752316, 163.31542600332222, 163.31683948468807, 162.54531920819846, 162.78158199752798, 162.5015810598124, 162.31815384908919, 162.20285061514784, 162.22800861274627, 162.11369722427744, 161.8520310630366, 162.34450082328036, 162.64246552903657, 163.0311137283912, 162.86738450078118, 163.02128907765106, 162.5530470127043, 162.81896097747156, 162.51657520896046, 162.55420808577773, 162.3373697617406, 162.28717405615822, 162.06609741271228, 162.48094442502955, 162.46064399858125, 162.4826374406106, 162.82083868268828, 162.60067147893236, 162.2790558025821, 162.4135527940244, 162.6491982082653, 162.61725523467254, 161.84454425113464, 162.25992791862643, 162.35759416477342, 161.83418872036012, 162.10981717049114, 162.37686113898584, 162.89867817981397, 162.4650783054706, 162.36672486401963, 162.84146930417648, 162.325897967688, 162.11128964583372, 162.27176884778834, 162.25092314627432, 162.29263512024002, 162.1752100960303, 162.11854386165825, 162.32455538550846, 162.4153736169886, 162.26951856287425, 162.27503842857075, 162.07175654436588, 161.7556646151085, 162.14804956141182, 161.672383985227, 162.05279782965442, 162.05265154029223, 161.83334830950545, 161.75474719526986, 161.6744946379425, 162.05639799592325, 161.78522738592756, 162.28829428236367, 162.00964340819476, 162.15863393381775, 162.0538881114887, 161.98111052957128, 162.26752808023744, 162.10443421371457, 162.49305393165127, 162.14266079612509, 162.37490172534558, 162.13958418495878, 162.17866062805953, 162.2333092024423, 162.37711287388942, 162.4249871918939, 162.2703261303381, 162.43796689405144, 162.31236486936976, 162.55601443310812, 162.03472925733038, 162.5563112325725, 162.56343462193885, 162.58001388922148, 162.34899835247487, 162.21799918879586, 162.02241101439077, 162.2563865261591, 162.14330630009275, 162.28533308010066, 162.54753647624614, 162.0699908225907, 161.95134016695602, 162.2598977921966, 161.97430182994918, 162.39618921841654, 162.24392366507118, 162.54805306974401, 162.24798869840052, 162.10938340865906, 162.37028929747504, 162.02284337395116, 161.75763520252607, 161.7220374534666, 162.06270999829155, 161.9803948502733, 161.90788956410123, 161.94135642902202, 162.78534542916958, 162.6345689854849, 162.65936234793392, 162.89740225154338, 162.74788086278463, 162.24737682372063, 162.08747567324008, 162.4206576297966, 162.43751890783543, 162.0305340240349, 162.2079324806139, 162.29654506888843, 162.32827500179914, 162.53004294934857, 162.1731465126271, 162.099928891519, 161.93899820512942, 162.04773017354694, 162.4124125179036, 162.1324543503921, 162.0266088103453, 162.26048883756738, 161.7178582665154, 161.66503897884007, 161.8124644701454, 161.94850727666673, 161.75814222485639, 162.36661912240007, 162.15273675565865, 162.26860254955872, 162.06177506535465, 161.98365334222686, 162.28410437774804, 162.3265554072735, 161.79676879218667, 161.84727851971954, 162.23887285722475, 162.13877175679087, 162.6043577651206, 162.39822588993044, 162.5151496250378, 162.30262102932193, 162.37170191627976, 163.17918187792932, 162.8000441234305, 162.6153422795666, 162.76479172066857, 162.70110929696506, 162.99344627537218, 162.54493166587517, 162.84092103170204, 162.67369702569135, 162.58449977191424, 162.5889108398147, 162.36567316695263, 162.2514245351891, 162.3696104992954, 162.1842052942513, 162.0804034350586, 162.4854998879656, 162.54389357740197, 162.49926706586825, 162.23522564085437, 162.2546375655944, 162.1056940843968, 161.7222277558803, 161.56510663144462, 161.65786310564746, 161.76536814118336, 161.6341785401088, 161.64321850156588, 161.5235079114297, 161.79879240259586, 161.67845636210484, 161.78200253485426, 161.97434465776175, 161.42796704414778, 161.2332981401005, 161.0654911720511, 161.04140791590288, 161.4502408874057, 161.0066209704531, 161.25405304182954, 161.62275122061462, 161.8832474544747, 161.93406745124923, 161.70281765526732, 161.5138865086166, 161.4845123772177, 161.13216680309833, 161.5695227492233, 161.132382621879, 161.33931946172328, 161.31507720642335, 161.1272065057285, 161.10163105119042, 161.2410063730619, 161.76874211331872, 161.32772765730908, 161.4441299257662, 161.58104126435853, 161.36643072857683, 161.22382487936918, 161.4431042856267, 161.3087403030574, 161.61538934096987, 161.4171709174537, 161.7224369767828, 161.8489616590582, 161.73726998391197, 161.84673541813743, 161.70982672171195, 161.65449943730326, 161.71078994596954, 161.62180650037791, 161.68156271159157, 161.68144006222374, 162.20781740809406, 162.1208036987757, 161.86007345952322, 162.14498919535473, 161.9816377813798, 162.1661836166746, 161.96625149895135, 161.90901637390664, 161.72499572414054, 161.60948863636364, 161.55378271273327, 161.70213481814952, 161.95514015128046, 161.62451976436438, 161.7071733939576, 161.79713174549263, 161.51283858768392, 161.89080907851627, 161.7086501923801, 161.62638010836318, 161.6666128388776, 161.6737790264483, 161.59782933386438, 161.59728921382455, 161.49377947344723, 161.7959097427326, 161.32262080587745, 161.65938064873063, 161.56349735626162, 161.83600066942407, 161.60877868061988, 161.51957877906838, 161.3010550130871, 161.57672213530554, 161.6719479866647, 161.73559894980224, 161.83130503376276, 162.05400786679905, 162.04661104071533, 162.15814049368868, 161.877821822894, 161.5231496452417, 161.7299707365431, 161.79632388995472, 161.52684192091786, 161.2412801676927, 162.16536376003526, 161.56710105003737, 161.38331934028716, 161.4254319944158, 161.44197437829692, 161.4002794521593, 161.48420841357756, 161.5294036233129, 161.96622740247383, 161.25643734817575, 161.27073260383975, 160.8407223726253, 161.17711021270776, 161.12104866088268, 161.30967519298858, 161.476603793262, 161.64907060727285, 161.98331567038065, 161.73155057846054, 161.63474452969865, 161.61922074974825, 161.85178625693231, 161.79235886713553, 161.57145905751912, 161.50239057430701, 161.07991932017325, 161.43920336424821, 161.31399618570492, 161.58766150301344, 161.5061374445826, 161.5619593796441, 161.30029768112095, 160.97078293271608, 161.15096420290675, 161.1656335877143, 161.17103187868116, 161.17908373361882, 161.37712253165273, 161.18352049344352, 162.06515456234803, 162.01776994810714, 162.22988644308893, 162.28395549347331, 161.70820034489657, 161.41168374803135, 161.92100712325092, 161.7111147983976, 161.8012157507474, 161.85692799040442, 161.437736294896, 161.67340109013878, 161.708289276903, 161.49490197939906, 161.6787632678935, 161.91244592840275, 161.5048156380008, 160.85524690484948, 160.88322637886762, 160.85400155691656, 161.18743507413353, 161.38070496182485, 161.61648331813345, 161.49227767147937, 161.78530264181933, 161.67758957965552, 161.5843292546852, 161.54916260455587, 161.6662708233383, 161.9414325942403, 162.04051874652114, 162.0648457981791, 161.96338484249625, 161.62688950947177, 161.76293916389452, 162.19635700228406, 161.96894276492944, 162.21079950492677, 162.56867365586228, 162.1024598350598, 161.37596528266477, 161.73820300078327, 161.41266708237023, 160.43953931149335, 160.73055272559967, 160.8172755912917, 161.0233437146093, 161.50588078435854, 161.61320777265232, 161.57093496908996, 161.4860633518836, 161.43614029045403, 161.44822218189805, 161.20755826637955, 161.2338701279029, 161.24217468384353, 161.36999123243524, 161.73867110424342, 160.963041745471, 161.1247114256519, 160.9419252826092, 160.89749386536297, 161.05924048963598, 160.87344227797323, 160.97071579441445, 160.72764984286144, 161.17301452955283, 161.18499583766422, 161.233628477049, 161.4233383507048, 161.37832040682974, 161.2499597793067, 161.22016420982894, 161.10053207045215, 161.02544285842197, 161.24990426663516, 161.27402999488726, 160.8972437796905, 161.1813537373814, 160.45924190123387, 160.489198426819, 161.10103254600125, 161.08801288500325, 161.12870276272207, 160.58738143480846, 160.84978404054976, 160.82094703612768, 160.61247972708463, 160.6718782009498, 160.94261344506378, 161.35109085757463, 161.3276772586082, 161.18380942481596, 161.29168306969905, 160.8835110398188, 161.0996149212124, 161.23911603255723, 161.41719725624046, 161.02729077933898, 161.56868497632044, 161.60568824743447, 161.18043514287746, 161.2725952242616, 161.18991735302066, 161.23382401823446, 161.61071288436324, 160.78144517614203, 160.509420788994, 160.6140737489845, 160.60838499428766, 160.81852707282954, 160.52587969439364, 160.674003267667, 160.9204762286161, 161.0750770366794, 160.95012036818505, 161.75023512730294, 161.58945975386027, 161.12460360466486, 161.15126925069467, 161.1151697707635, 160.9834248692735, 161.04006364988794, 161.23527524429198, 161.91443555327334, 161.39053302114831, 161.81133563378802, 160.95671670060133, 161.16383378079783, 161.275000118243, 161.02475142196565, 160.90719291530215, 161.3570453128792, 161.25043625052163, 161.0932348113212, 161.06799504458925, 161.64132456014877, 161.00691531572383, 161.15421065600182, 161.16481129384923, 161.40697196100754, 161.48040944475505, 161.40884786213996, 161.05934601737718, 161.1103004535684, 160.89381442324952, 161.31461175721944, 161.2632213936256, 161.20277930759443, 161.00482205342664, 161.28556725592034, 161.04441447815123, 161.00620583395946, 160.699175363817, 160.6085556252387, 160.42238618111455, 160.84964978855157, 160.9754024030832, 161.5591960801235, 161.50656194456454, 161.51385176476234, 161.96579790374247, 161.8586436331083, 162.13124494177285, 162.32406369358745, 161.97885371205362, 161.88174614608846, 161.88044259576955, 161.66763541806083, 161.60955651941302, 161.60672641234083, 161.69047105047278, 161.5856984834627, 161.80002019512335, 161.7663669401491, 161.97120913916143, 161.97668742312425, 161.6753767072712, 161.40010332096324, 161.8593402087416, 161.80490448706368, 161.87821943824343, 161.7986895745631, 161.7484764358582, 162.63571235469047, 161.89900029192052, 162.350348886976, 162.2376519016865, 162.38862888517914, 162.7662189515992, 162.47233545196374, 162.3226536703531, 162.26480502805924, 162.29191354699705, 162.20596797321988, 162.18749039422116, 161.824450943949, 162.49068109385746, 162.71402911841585, 162.57238502268186, 162.72572833327632, 162.26843114802415, 161.81461724146172, 162.12429229945297, 162.04457574296882, 161.86219774685097, 162.16168929542596, 162.2195100963745, 162.83217665003176, 163.12621590483738, 162.58495984683293, 162.1613319529049, 162.60974082094407, 162.71024402606454, 162.38321461063472, 162.11798039272279, 162.04662865295538, 162.31969718957095, 162.15178872845473, 162.42909415612775, 162.3702178719863, 162.4432845296772, 162.6568636511774, 162.20933259418157, 161.63529115032458, 161.63594846717896, 161.26521357519016, 161.26894515565215, 161.22069612613632, 161.3811901553302, 161.08032291568313, 161.36703630606712, 161.28113082564468, 161.96254101088869, 161.686037534432, 161.49343930883882, 162.05582681192286, 161.9027934360516, 161.39659593640508, 161.75445315070843, 162.0499032566268, 162.28955696202533, 162.02556849668227, 162.20356294193348, 161.89768245050314, 161.5435037607664, 161.79628373339492, 162.13118003955225, 161.33715220168966, 161.1754771588368, 160.9134432797843, 160.4350412035308, 161.2134533898305, 160.80415685306184, 161.1556622877863, 160.84337983804784, 161.28510733772836, 161.35900390102114, 161.0004380472615, 161.2989493973158, 161.44855131976013, 161.3237678634671, 161.3723707468492, 161.54013382756463, 161.52082871276627, 161.22172671965552, 161.87199704802782, 161.32258344086435, 161.41250785973398, 161.62544811549267, 161.61800266957894, 161.87325782486909, 161.76617565341158, 161.67047675537964, 161.42257796739412, 161.59239432669384, 161.20155863576235, 160.98976465374702, 161.31120806364424, 161.07936030839548, 160.97979408347146, 161.36740958547236, 161.680325968292, 161.70264002164586, 161.8156595835641, 161.68535039894263, 161.4891137152146, 161.54241275208307, 161.28315051474908, 161.3413425013223, 160.660045084462, 161.19423963133642, 161.0898715088913, 161.0028191723026, 161.03402269470587, 160.7219808692603, 160.28198670454213, 159.73426573426573, 158.52352747142427, 158.4124430489743, 158.03234481930605, 157.614955180501, 157.62947770208243, 157.03535738421502, 156.84354848777303, 156.98179520081507, 156.7910853179859, 156.35342267259702, 156.0771736720866, 154.07281306156966, 153.18452520628108, 152.35434229703085, 151.52339021669476, 150.6516484922587, 150.1553536155453, 149.68258066349904, 149.3928664719432, 148.3287574830634, 148.2762890160095, 147.9520161134883, 147.88817923328617, 148.76465241767283, 148.26029098651526, 154.2775011019186, 151.79357973976965, 149.85713119320692, 152.16159840513032, 149.51981423554471, 149.04574143002657, 152.83551234830009, 150.8460913076722, 152.3031664244506, 151.7791120462302, 150.09738419387241, 150.5147332696798, 150.53723439371507, 150.72009942145377, 150.8111564933505, 151.24387273485482, 151.34840560468479, 151.16967370804363, 151.1867873465873, 151.17899703730347, 151.30315753476708, 150.45209499793418, 150.49751269783198, 150.45717196607117, 150.3747245404268, 150.1715352058847, 150.32507307275063, 150.8147104061409, 150.9561265955921, 151.027216709883, 151.36203920365185, 151.9095987958085, 151.99482075562855, 151.84086803608992, 152.09810703026713, 152.67665844344563, 153.0669375776047, 154.36097578178922, 154.8723462559851, 155.68664887429003, 153.9486815796337, 150.4685423831821, 149.21408983187368, 148.8439291900955, 148.39085403683572, 148.26912696713913, 148.0414269382422, 148.03939270553985, 147.41974170171346, 147.41421991271164, 147.97055296093012, 148.13289251667243, 148.5568424710682, 148.03424670522423, 146.94208225943507, 146.62517152112716, 146.12854451270476, 145.63234576210135, 144.87554827158272, 144.89395195089958, 144.21398101587658, 143.91836619612414, 142.82950091940788, 141.92340899017506, 142.10859703346046, 142.12553333580678, 141.91338641616065, 141.58512460913363, 141.2519217152668, 141.1939048289729, 140.90019868348978, 140.63779118329464, 140.72159043398278, 140.54388390730713, 140.29953852932312, 140.90348284222304, 141.05029000883346, 141.21807284895647, 141.6533078315197, 140.94234899985557, 137.80800007249726, 137.71108525138808, 136.79160087140514, 137.66999450080252, 143.51408788455896, 145.02911931153827, 145.63171764178185, 145.36326902176438, 145.44542613044385, 147.97774428464777, 148.96874059160018, 149.9534168979588, 150.87145521066918, 152.0598195525893, 153.3311755591677, 154.42236448223923, 155.16685464074834, 156.04383469572255, 157.04394692020477, 157.83874952897463, 158.22397132616487, 158.40970139273637, 158.2753911752207, 158.24931883359497, 158.34085410749972, 156.93050718508263, 157.47596818892697, 156.92290494325394, 157.01209212231703, 156.12521636876764, 156.86577613566388, 156.55340341793297, 156.06501570082784, 155.2998100673741, 156.1409628285887, 156.1140163515341, 156.2078068981384, 156.4457075317587, 155.76542071182024, 155.34076950696374, 155.13892460107388, 154.0239665704756, 152.95436577223393, 152.1470085073831, 152.81521260962757, 152.464134902446, 152.05134836998613, 151.45998411303248, 151.17761393784906, 150.20648181287322, 149.54136137473077, 149.13176092804463, 148.54008247673045, 148.58589567652885, 148.47918545235947, 148.1253207609129, 147.95115355956193, 147.8102060761364, 147.97559979533494, 148.0041545199769, 148.02323816306068, 148.06245900103085, 148.28064289724875, 148.23274369239363, 148.32187270717822, 148.69447608732187, 148.79602218433232, 148.70666086769458, 148.67500480775996, 148.79483098770604, 148.58617245744833, 148.51277370550085, 148.5831671245249, 148.5670241349941, 148.61648310840982, 148.42764777021208, 148.42956836998738, 148.49138488652235, 148.20303490563384, 148.1514345243123, 147.8039492572348, 148.03035377458335, 148.16190449274134, 147.9698951160478, 148.14198586625568, 148.10639482388387, 148.27017181713313, 149.10797547159228, 149.3899523206889, 149.15925664440255, 149.12544050976416, 148.7102350580148, 151.4195316934721, 152.63501520630282, 150.28148939960806, 149.9564283508194, 150.2981028283909, 150.51191696204435, 150.67041605509766, 150.66458139162688, 150.758150470958, 152.10058371501756, 151.34153599849319, 151.34159345624167, 151.23421418636997, 151.42337710165864, 151.7283154935976, 151.25087130957476, 151.6808208314057, 151.5114774281163, 150.53953397589018, 150.5115634229213, 151.15469336205936, 151.98166354520362, 151.81170894898244, 152.5176726253067, 151.66005144147144, 151.73674176696235, 151.9557972787671, 152.70630909835455, 152.76206275564573, 152.7916641430495, 152.95808760404614, 153.4010833505145, 153.60758257800143, 153.92382620322115, 153.97722665862145, 154.2254707046284, 154.5346374969167, 154.54684954667857, 154.18743473309678, 154.04622883675282, 154.251563142448, 154.62887970028086, 154.6994801527907, 155.46716717573958, 155.30144281291714, 155.36086931839685, 155.3527875591004, 156.2123062851045, 156.56196939935413, 157.24891243032383, 157.2508597285068, 157.85171785902534, 158.33751564154394, 158.43192097290623, 158.9975510086483, 159.29727602556966, 159.1499809596344, 159.6509140440175, 159.67261969979182, 159.8346518987342, 160.06867699722213, 160.10872135712174, 160.39893238264094, 160.469314579937, 160.94524077332025, 160.46453142742635, 160.753786571571, 161.24446252730593, 160.93591532355063, 160.7060868070641, 160.37543721060823, 160.58096733998215, 159.9752919379399, 160.42788897594795, 160.3438678151948, 160.44621366413625, 160.55766689169275, 161.98603265195192, 161.41665701098816, 160.75034973020811, 160.87796508528785, 160.84239747873994, 161.02013893527487, 160.5171488827279, 159.8990175544055, 160.07062240116164, 160.236601233027, 160.04809640056095, 159.86604409857327, 160.6635702283663, 162.43057568077074, 160.54955978144162, 160.61744321198466, 160.4891272818918, 160.96681155396416, 161.01093604923855, 160.36833980490576, 160.67869120732223, 160.8699225013362, 160.6375420044425, 160.07635609324728, 160.3845884810617, 160.07252540459166, 160.3500294360061, 160.44285579597417, 161.0865013223738, 160.9046839951249, 160.81251688172605, 160.5301199699721, 160.82436670573108, 160.94521487024952, 160.77609855521402, 160.48226667993765, 160.63446461582214, 161.0709116254201, 161.0095668387837, 160.86070621657436, 160.4995951301976, 160.9029323125705, 161.27435655636205, 161.08043220149057, 160.98677952707175, 161.11984313800232, 160.99676744628258, 161.14131867608918, 161.10502420011136, 161.1956300474664, 161.3312637988832, 161.29431452457578, 160.76791479133774, 160.68291970940388, 160.54458624212097, 161.25530623470723, 160.6752432983752, 160.6819119734974, 160.63289522241462, 160.3594356943612, 160.5580294596539, 160.46178506340826, 160.39308367405644, 160.81951819005727, 160.6693277589126, 160.53460170059358, 160.56964874206255, 160.6695013620751, 160.64178559921154, 160.85050037540037, 160.50539506237078, 160.9414581946162, 161.27353248899993, 161.3121762400841, 160.79642393178543, 160.88068463818263, 160.77247344432726, 160.57677617577832, 160.51646752271182, 160.75930861728173, 160.55351739609944, 160.54433193031466, 161.1524460534464, 161.18142825790324, 161.03776086212795, 160.5197880694451, 160.41978958105096, 160.08813204062355, 160.67686230194715, 160.82713072649125, 160.73634032512047, 160.6627075678601, 160.5759278070445, 160.97393385180752, 161.84359719708928, 161.1966563844777, 160.7275176080424, 160.88320478735898, 160.9600540806293, 160.63751662929485, 160.6739750889847, 160.5965939254422, 160.70321157978063, 161.34236803204425, 161.0293680597426, 160.86927285755638, 161.00192200384402, 160.68193524475657, 160.47005128107907, 160.36522722326828, 160.4782586044397, 160.35265289131092, 160.4168653384042, 160.34369590543974, 160.81973878348822, 160.2575431389822, 160.56973406220692, 160.37292197448465, 160.39602294744205, 160.34294957955453, 160.26397891218903, 160.41458088675714, 160.2118964179034, 160.46254666622616, 160.39101842834316, 159.7134642691448, 159.63119355397515, 159.37190913042056, 159.72600502984122, 159.38152149038618, 159.25061880899662, 158.96138404059556, 159.38796286774672, 159.53380723082887, 159.47259672020792, 158.94720512784733, 159.71904654633516, 160.01882160007165, 160.087804142274, 159.919348167367, 159.4723510825044, 158.9470654056338, 158.61686254376593, 159.12158047625041, 158.98904360265294, 159.29251335650792, 159.32850541448843, 159.63378244260514, 159.58277581004853, 160.19403034441046, 160.29160570635835, 160.35024016279016, 160.00317914706272, 160.34261867501306, 160.4417055831805, 159.80423587030685, 160.15110518382164, 160.3135699236239, 160.68178049023186, 161.02824958323413, 160.39975981882398, 160.64369015789498, 160.439944632333, 160.55002183530485, 160.26910331936105, 160.37483720335493, 160.44772876488454, 160.29867583769916, 160.63051640741074, 160.3554286738081, 160.46821180178736, 160.27597075731774, 160.0858821488355, 160.30341585621593, 160.0781434622803, 159.985253842571, 160.23309268475037, 159.93406624029873, 160.12696734406802, 160.37939810158264, 160.54160488033787, 161.1596502651794, 160.9013180240018, 161.03754630442103, 160.6418094527034, 160.59837711936328, 160.2925659023845, 160.23176150140864, 160.0963127677366, 160.3604585119017, 160.70369285430803, 160.7503693181818, 160.34286950917158, 160.7616482374067, 160.34717909329513, 160.57392831279967, 160.5169123039436, 160.53333491686462, 160.64428650781218, 160.6672611969877, 160.2349107476216, 160.57288244553374, 160.91405075813785, 160.84334827108216, 160.2232134879018, 160.04196942475573, 160.89382473242406, 160.41245770619116, 160.47591339392739, 160.5682520161767, 160.69112736786923, 160.46297877157156, 160.42714792374062, 160.42574720021142, 159.9026506385331, 159.87702354888162, 159.9833535478897, 160.10990341008096, 159.88843368722775, 160.02728597518853, 159.82029708551778, 160.2003832505323, 160.17602398454076, 160.50801081733627, 161.0278038780217, 160.89879889859478, 160.69565093762884, 160.7046066605978, 160.48604307302764, 160.27929066353494, 160.05031584652477, 160.06246845971253, 160.35078511931562, 160.87723463422938, 160.5206316453967, 160.78961577810617, 161.06105897677247, 160.9858553382543, 160.8130724475365, 160.41140058082522, 160.15163845843003, 160.1997137359801, 160.17394852361835, 160.2041369351799, 160.54937524432117, 160.50814303208887, 160.7715440490659, 160.78953581158606, 161.02415136180133, 160.45925392928694, 160.13895721413468, 160.12372988795047, 160.1461728395062, 160.1626744923858, 160.15492314006417, 160.3347046902278, 160.25364251713233, 160.49129912428077, 161.43658250426853, 160.6858360309176, 159.9924872802366, 159.8003608664515, 159.58489902611672, 160.4339994685835, 159.78833750347513, 160.75023295670047, 160.42406279364397, 160.95502160841787, 160.45800662422775, 160.53316797497075, 160.28623815448518, 160.52430790960452, 159.8137981712819, 159.5211513301352, 160.17730396772967, 160.14374932600654, 159.65541488245074, 160.01405438721002, 159.97704583818464, 160.2737851752592, 159.95713622312806, 160.11933052976207, 159.9691319084832, 160.4467620182757, 160.53718852223005, 160.702586835017, 160.51453535000897, 160.45585329334293, 160.16693063478493, 160.59918378490332, 160.94281567214634, 160.33259484777517, 160.10866447076413, 160.070972221575, 160.20275579502723, 159.85049623752428, 159.97705958265587, 160.44569139401995, 160.09091546530544, 160.05340016724048, 160.12174685556647, 160.27742577884655, 160.16643041539544, 159.9938039866331, 160.34142376415946, 159.80645583893624, 159.45809811468274, 159.8261509237187, 160.18652082291757, 160.15748799940232, 160.2250188985637, 160.47837086942872, 160.6543630325726, 160.14530738280155, 159.69614000456252, 159.72891641554762, 159.4923768396933, 159.1368413272542, 159.8070307595731, 160.2532275290899, 160.16825166647178, 160.19064129655573, 160.21415524686444, 160.2700123340415, 160.3554828212146, 160.5261422648611, 160.28343950539625, 159.880763145736, 160.40158482625156, 160.20680012740286, 160.21247304771725, 160.45402490836977, 160.95640076845183, 160.91831507716734, 160.79842221729427, 160.58253547776727, 160.16371250760375, 159.91147820496695, 160.18796391033393, 160.0044827826734, 159.75711087578495, 159.84579410928183, 159.65730608902783, 159.4247705146036, 160.16455113016661, 160.06027243101303, 159.92365670281814, 160.17580365103947, 159.95647784160758, 159.85051560823106, 160.04150132894097, 159.64650907603036, 159.49710478452914, 159.62060039246796, 160.38542563948914, 160.27622843206422, 160.24237257170694, 161.1345929642549, 160.71611423707978, 160.45886928753168, 160.43998382896308, 160.27433669809506, 160.7360203013962, 160.84596029000616, 160.17688035350739, 160.45307377629976, 160.76092695386635, 160.65773954135346, 160.70286813071746, 160.52717713375463, 160.60023880483865, 160.63691124002764, 160.36854813657285, 160.55114356377342, 160.46853100808005, 160.20586938369595, 160.37382107027338, 160.48191854540673, 160.7071804296256, 160.39675399301078, 160.6236467491371, 160.75951918945844, 161.03790660636392, 160.65571553763084, 160.32638446551013, 160.46168371804626, 160.19791086546516, 160.24501046853118, 160.13823273319662, 160.42193918315553, 161.31201403849172, 161.0453221818043, 160.4319293747231, 160.30935187577813, 160.29119508379256, 159.83072550877077, 159.99723488528508, 160.19551384028, 160.1832259992808, 160.5896849593496, 160.37548178365452, 160.48245766167778, 160.6250070508602, 160.50351550765996, 160.20950667196374, 160.27039567014845, 160.66010409913844, 159.82546451700009, 160.196458096215, 160.15572045319246, 159.97157186727304, 160.0648593144127, 160.1272452206107, 159.9854823815082, 160.5600371169372, 160.11174149915462, 160.41571565385178, 160.33161894454508, 160.0386962993475, 159.55813498896967, 159.75298749162386, 160.2125951427434, 159.8271810127702, 160.11746473350573, 160.36007440831798, 160.61684757005295, 160.76657532431267, 160.59847599767284, 160.35105943152453, 160.75910406609597, 160.72368132862272, 160.75944428359193, 160.78311956656287, 160.71548164973785, 160.56577197781323, 160.8744951419318, 160.42200398116964, 160.31059648262067, 160.320137229386, 160.79505427940234, 160.7636143013561, 160.32042452297617, 160.3720449840015, 160.4004465649752, 160.36744127115225, 160.43485666025433, 160.66610609422327, 161.25426456235567, 160.90394439010097, 160.5981465959711, 160.55105532564738, 160.41928492513105, 160.23898083216457, 160.21143484660857, 160.41833234938574, 160.73091486215372, 160.4547254531208, 160.84659964907493, 160.7331949167372, 160.29301718716266, 160.77201454944495, 160.63227779114706, 160.27513918579248, 160.03221841145918, 160.03897051554253, 159.94469775036114, 159.67259971356629, 160.0880569791486, 160.15295481424468, 160.2684507916212, 160.8783583397685, 160.68999530963515, 160.17770384725475, 160.39122794751685, 160.0132819194516, 160.01530001165094, 160.06490556180117, 160.32515383320555, 160.05172470226267, 159.3591389341401, 159.9454763919603, 160.24600990643918, 160.418615192838, 160.5364079847747, 160.32311688801514, 160.48587422291817, 160.58300854075503, 160.74090827870933, 160.7526001713054, 160.25939471905048, 160.0368463425137, 160.77867390278433, 160.44815137323195, 160.66009117594314, 160.73624664121058, 160.63485022906144, 160.8385607769807, 160.6741348213279, 159.38652847816195, 160.28603979026303, 160.14921099100278, 160.4410346998412, 159.92851830891053, 160.57685022036839, 160.41062208596492, 160.5005895751744, 160.7834431096611, 160.70021608529433, 160.6078157214968, 160.3064007057902, 160.82419243659527, 161.12873716241916, 161.10088346695434, 161.31851675778466, 160.33494262491595, 159.44436014986852, 160.14928155013266, 160.04173906527348, 159.94010734725012, 159.79513711921072, 160.8245304453901, 162.09483039715295, 164.07818749734992, 165.13092305155806, 166.02192961904316, 167.21442153060258, 167.74975510972968, 167.9529995342338, 172.31812696349786, 175.97515621154736, 175.41701631137929, 172.29527160983346, 169.41368223833538, 168.72410453949655, 166.93347087112042, 168.2458990640187, 165.45243469185246, 161.82425625801164, 159.92667575199854, 159.26061733232004, 157.3391486553222, 158.07595253778143, 158.27939256933146, 156.79897453781155, 156.00810139623943, 153.3005725656207, 150.94648456759688, 150.4218940400672, 148.58268323776448, 149.74532482162974, 152.3424804129502, 151.43216837556622, 150.31949613780463, 152.44363268517478, 154.7962881909333, 155.08041568025754, 157.47539797054995, 159.16154544214936, 159.42863044243634, 159.3876931891293, 159.3099416583737, 159.36531136254618, 159.52553291609806, 159.65711870729507, 159.73285012505733, 159.66005664382948, 159.65172301120893, 159.5946529738333, 159.48462501541292, 159.7365302616572, 158.96476624803694, 158.9527270840507, 158.67116573066713, 159.30295437246178, 158.58518504563736, 158.81311105125624, 159.00460273609718, 159.23912043949585, 159.20495679035741, 159.067801661337, 158.98627542659054, 159.30337957650985, 158.98698277451783, 159.27275136281042, 159.81959099288787, 159.88752485231305, 159.50696665198006, 159.8294319949388, 159.68040189551854, 159.9690970293457, 159.95348171473557, 159.53777372349472, 159.6173852088867, 159.63788186985533, 159.30899915576592, 159.5242293473658, 159.4389003586821, 159.39086357056408, 159.34274973452668, 159.2769993277979, 159.3058479005653, 159.3444890122424, 159.06186870480602, 159.29565584742303, 159.1842443014175, 159.17877433814922, 159.03822585903063, 159.44952270345294, 159.22115035698295, 159.40435670845343, 159.4092529715384, 159.36840788740903, 159.51764633836123, 159.4967733083525, 159.3503938676247, 159.01747311827958, 158.97964423339647, 158.7471172160141, 158.43328052786774, 158.81981392986154, 158.91564915319657, 158.8644625376506, 158.67538459374427, 158.75653872521858, 158.6962646071884, 159.10331728954324, 158.89956829384263, 159.03316807584517, 159.2652967452524, 158.7512799771825, 159.05527697121227, 158.72210146279573, 158.6959014751708, 158.55367276349907, 158.44816954071098, 159.13264852469757, 158.92188696440567, 159.1086630653053, 158.5045412323253, 158.45564408094197, 158.21309384831054, 158.18738113306537, 158.4524456521739, 158.2088478380243, 158.3631172289631, 157.8924365130001, 158.068383998508, 159.50845233318384, 159.18613470945343, 159.5728989693057, 158.8235639499655, 159.2707652029262, 159.31477530180354, 159.33750264500506, 159.6181361604509, 159.18482257875627, 159.04827876126862, 159.11367307287153, 159.5860063513539, 159.024500600781, 158.85806974858068, 159.01326493600703, 159.09502458915813, 158.95301997594396, 159.18662000179964, 159.38822776711453, 159.21167566846705, 159.11713894248777, 159.25902655329907, 159.51605797046284, 159.29158079752887, 159.29793911892608, 159.32539708778674, 159.07024492118964, 159.1214888234796, 158.71090866510536, 158.6291694466866, 158.6962476942116, 158.8890251436916, 158.785650404791, 159.1175428986958, 158.97151307596513, 159.26101498226282, 158.65068737557752, 159.22146121965662, 159.19212368148328, 158.7921629650587, 158.3116546411811, 158.0090223664886, 158.1849740495775, 158.02147656655492, 158.35065251517068, 158.579058634508, 159.06262062847136, 158.8428652841688, 159.01777781973877, 158.71310851211854, 158.5019056503823, 158.94277162300807, 158.9159479924093, 159.0697440925396, 159.01476280281616, 159.19129692188648, 158.96224519160458, 158.46712664812358, 156.17325874203277, 157.42349020230216, 156.68157513645986, 156.04008078225385, 155.64757053291538, 156.30408060313508, 157.5273267854388, 157.96001559175892, 158.30720110169452, 158.35613721897477, 158.23345835330835, 158.72886065899166, 158.51570926583608, 158.65546684200638, 158.44421046720575, 158.7685303514377, 158.87893731729864, 158.82624010219513, 159.0574970117366, 159.45234519626734, 159.12179232804232, 159.01166874362752, 159.18014324243617, 158.57231421505122, 158.7538425248856, 158.55363906862513, 158.7875411147023, 158.48451077408143, 158.48472687157638, 158.7756448279821, 158.62640911728613, 158.62718575667657, 158.8601846223978, 159.15575578907325, 159.21268100460523, 159.11025836117634, 159.27078674527343, 159.2210923497783, 159.2499787845929, 159.32882695899923, 158.95081667393538, 159.11357776803683, 159.31300592101846, 159.13835450924125, 159.30349652338361, 158.96488423999395, 158.75449186512614, 158.45197487380398, 158.60512628784258, 158.27386861037846, 158.21812373891305, 158.5209458404131, 158.51514435794726, 158.3766848592049, 158.2053047499741, 157.96674729065884, 158.4471298525429, 158.58195724707346, 158.8898335959272, 159.0167626880946, 158.79864265131042, 158.9411169863389, 158.50137786234498, 158.64116951601704, 158.4721374673844, 158.62898850520676, 158.82913203562183, 158.73975161431827, 158.76094352460873, 158.31316859673345, 158.5487345536245, 158.2653855945388, 157.44518734091932, 157.9915410077234, 157.97872941708428, 158.06782438362873, 158.6784086552796, 158.4011086464014, 158.3194666616482, 158.05080861712648, 158.82767112343447, 158.53474764996835, 158.9797479578169, 158.91989368708252, 159.14434959867498, 158.97544306893437, 158.80782257799325, 158.58368987728622, 159.05437102736062, 158.93808238347603, 159.06729657499196, 158.77146164568026, 158.13954298027298, 158.44882778554427, 158.6687657490273, 158.43285423273798, 157.44985429422744, 156.99039069473372, 157.60756193569827, 158.31560989613482, 157.9776015977527, 157.86323428395195, 157.96519218180117, 158.90938745066939, 158.73854915049688, 159.11541183567422, 159.3192652006158, 159.19918664585995, 158.50234531008132, 158.76908727015362, 158.39718608155326, 159.12471882617575, 159.06750875402258, 158.84022781491925, 159.05508420257996, 159.13115785688603, 158.39290732152003, 158.57833418882709, 158.12066919067524, 158.0866613679929, 158.68562608364695, 158.3964317472864, 158.5814606741573, 158.4834075482711, 159.18797765532534, 159.01581116946187, 158.8092940317508, 159.04573878863675, 159.29850350570712, 158.70228195842722, 158.61311764347423, 158.4739916368205, 157.54400116441218, 155.30570561612356, 154.47347164436448, 153.7825304086054, 154.30769194549342, 154.20634058313334, 154.04503083052808, 153.40052952202436, 152.70713563416413, 152.5386990499144, 152.66091723812198, 156.9284082511869, 158.50044914284635, 159.5599296435272, 158.92715649872338, 158.92421968787514, 159.60737066906455, 159.70649160580348, 160.1182972896402, 159.11707062535004, 158.7369203259244, 158.8364617024061, 159.72494901042452, 159.39701090975007, 159.18195355785414, 160.40866785481907, 162.27755841588817, 165.86582350433423, 168.8704186658598, 171.6426647461289, 174.2082215704058, 176.2883429866162, 174.27493846198053, 173.81517840106852, 172.78325788830318, 171.4083588224049, 168.67367030062766, 166.95270697183165, 164.91805353533448, 162.9556501928458, 160.41660530539036, 157.73450237771738, 157.03344047210078, 157.17528720743465, 157.2081940113461, 156.76481644255765, 156.77517114828146, 157.1638964234648, 157.02659059000382, 156.46276415254397, 156.57224671883898, 156.43984769301093, 156.2305431807833, 155.58022435266665, 156.195711015927, 156.55957799418286, 155.67708500193166, 155.6663165628915, 155.7439666396211, 155.84523041420397, 156.09510218330723, 156.21969426320442, 156.03383232123522, 155.69399901507867, 156.22098049104682, 155.69028255924215, 156.75744755443534, 156.85442120129287, 156.3802519625817, 156.4469623120429, 156.5992598068529, 156.75481163656937, 156.57207743153918, 156.27410869187042, 156.31096516813759, 156.03031836627585, 156.48354747876294, 156.5019265994097, 156.26572286043455, 155.8357879721125, 155.25108119632088, 155.2234746924585, 155.1875672248186, 155.46118533647254, 155.643116353989, 155.38273814865371, 155.7758704016072, 156.02569839272707, 156.1865802798704, 156.64123265538873, 155.73201903659034, 156.66617185351, 156.40303325474918, 156.8470382027554, 156.63037962766833, 156.70478310384098, 156.5815371432338, 156.838427803296, 156.8731333072252, 156.6646085570049, 156.76631232887095, 156.81608850963437, 156.61423047030502, 156.31745986846758, 156.1905475981178, 155.8807685283609, 156.05965680768165, 155.61147593122672, 155.34297140777176, 155.76093734615512, 156.12079385668096, 156.11326917030732, 155.85849568111283, 156.1414734740152, 156.62708509103933, 156.47388143701343, 156.79240959879309, 157.07803089442433, 156.48022811011242, 156.6043135335586, 156.93995800465353, 156.76199133584262, 156.77623458979414, 156.40099625811882, 156.19520056798012, 156.4814179287916, 157.12577269547592, 156.46715401419212, 156.37755513302577, 156.49355979648578, 156.57458516482217, 155.74860057337781, 156.90175340146567, 156.2937541885103, 155.89079289806676, 156.62733049135764, 156.54834125916526, 156.59234886456505, 156.99540693946375, 157.31384824867524, 156.98056928988376, 156.6772099761391, 156.15903067375305, 156.86089456959522, 156.52703723640346, 156.667780818286, 156.787575682806, 156.32781921501754, 156.34430433752073, 156.06956776778574, 156.46851433238987, 156.90969423243672, 156.1702159688019, 155.7607050654322, 155.28443773881037, 155.4391083029445, 155.76211663229657, 155.8452689466355, 156.0378503855482, 156.3251651566629, 155.97421055108475, 156.4170056168894, 156.50248201421923, 156.29257928198163, 156.3941025096206, 156.6608400975743, 156.93714816894496, 156.6857254850105, 156.78692904364812, 156.739824470344, 156.8257339636405, 156.5143776145941, 156.63290403383985, 156.50886067579185, 156.3157328704446, 156.09149465119782, 156.1404579073821, 156.04283574309824, 155.92235481677724, 156.0779423848989, 155.90005667155322, 156.47040598189986, 156.92304889015097, 156.66840378578678, 156.97956686302967, 157.438004381046, 157.24013939866495, 156.51362090937735, 156.83242341879776, 156.8299245334603, 156.68666210831583, 156.97389762631838, 156.9487523617794, 156.5232888694511, 156.45300041267237, 156.68366237482118, 156.45592422486442, 156.5900870023728, 156.54424551447323, 156.56225230939447, 156.18661785044426, 156.04189370086164, 156.22473874986449, 156.20826404232363, 156.21261447910535, 156.4898226903332, 156.68595249286633, 156.69732549317146, 156.79970811497236, 156.68514148154804, 156.8121377734987, 156.46493887346122, 156.4340533599928, 156.59409592351088, 156.64871574208922, 156.36180051179767, 156.53897929624264, 155.8966003594458, 156.05554768850246, 155.57789117569453, 155.16704433101373, 155.95840320764665, 155.14977679933534, 155.61880473667634, 155.5663458337826, 155.82654570462276, 155.87972649283054, 156.06142849086396, 156.005819792928, 156.25462454599207, 156.7705785015184, 156.37623966651506, 157.00733025608358, 156.91463512676336, 155.89878987386564, 156.12824945243872, 156.03927815643058, 156.26073090076062, 156.18491910024608, 156.2671725333146, 156.95155528078115, 156.34942885347624, 156.10036134966447, 156.22608679241722, 155.90997873069682, 156.05108164294703, 155.83198931054923, 155.9543644051799, 156.53061399578658, 156.47813513861166, 156.32012667769723, 156.6114423798175, 156.47159680187062, 156.62122271567608, 156.8834214379433, 156.8384635834528, 156.6522748002136, 156.96470492881866, 156.95832298017928, 156.2253432973487, 156.09414885887983, 156.34698074494207, 156.75484649226547, 156.42423984770974, 156.574933928411, 156.72319906552264, 156.87584677034633, 156.74519017896674, 156.35858106608882, 156.52683649934406, 156.3100848256362, 156.3978097530298, 156.18249173118843, 156.25841868240752, 156.34787581007242, 156.33635328225304, 156.75961301687724, 157.16345514950166, 156.8942306779452, 157.26910432963476, 156.43128643296333, 156.65543176016172, 156.75155588629826, 156.76035954119664, 156.5948738777457, 156.13155916403548, 156.38965421226752, 156.6767376486984, 156.34940784744032, 156.57167139886238, 157.12452476011703, 156.80971523011635, 156.59450848360345, 156.67444501220692, 155.9778715723968, 155.9413763646775, 156.29086369924013, 156.44405274220563, 156.44120830089807, 156.5845619503295, 156.70897956466752, 156.98270868621324, 156.78403219537168, 156.5945376460171, 156.93544048100003, 156.73022805385185, 156.5469645037646, 156.69324037730323, 156.79814850841524, 156.6518263488651, 156.56845137804524, 156.56854292517622, 156.7245829069186, 156.39402517360702, 156.11730942465417, 156.24436611388424, 155.8961471672008, 155.9002606486522, 156.02404409264366, 156.45789893071347, 156.45290630504365, 156.5000094526893, 156.4285019041589, 156.48868406514276, 156.82494310770022, 157.3788616256764, 157.09018035118768, 156.91253086419755, 157.57913378248315, 156.96490585251416, 156.824552601561, 156.68964229847685, 156.31591359660248, 156.69128478194284, 156.5045937830488, 156.82373377389663, 158.91358703378987, 162.242853755438, 164.3354875932085, 166.94510431168115, 169.8449283971467, 171.8003078911358, 173.24401303936742, 173.23569065903246, 169.04946748734446, 166.52833239556645, 170.3304306563079, 169.2131562587735, 168.9225694633043, 167.2743591595061, 164.45694697478186, 162.50219657696118, 159.64359907882542, 157.38238078109913, 155.79736720597796, 154.52951096121419, 154.8559959503444, 155.23482464891413, 154.90349210987725, 153.37367970448466, 151.82673867153852, 150.59372217170267, 147.96792234209644, 148.0346495371245, 147.53026876433955, 149.98365621217374, 152.80102022972653, 154.823197092694, 155.09858299500567, 155.20014811386253, 157.5300246752642, 159.58571903737953, 159.51769930158375, 157.98836957034382, 156.94493422593024, 156.15820648934323, 156.1091391403676, 155.97324269050145, 156.15185622989654, 155.82576084104795, 155.46472546611693, 156.20474982162182, 155.8303696078293, 155.32010094011014, 156.1742369100173, 156.48120364926123, 156.27153085610306, 155.66122577877914, 155.9141607592042, 155.35440121140297, 155.006752153503, 154.3604905825668, 154.73746694476517, 154.60864647480204, 155.72581600421165, 155.95948281952852, 156.19486990219596, 156.62957875240988, 156.68773930908176, 156.4811310020481, 155.99066438755, 156.15138451960402, 156.20916029088704, 155.89064676194118, 156.12782019062072, 156.03170106761564, 156.21908231399928, 156.32842852379363, 156.13935785060977, 156.4120143995688, 156.8406865098416, 156.34227937304317, 152.40837780271627, 154.35278291497448, 155.46973936022644, 154.85935894801727, 155.96933555662324, 155.66374667200716, 155.6968540479926, 155.7615070054932, 156.18401021832202, 156.2012234385061, 156.30242531090676, 156.03182973557418, 155.6314262744416, 155.919968522153, 155.95894650893416, 155.78180210761207, 155.8173778203511, 156.05816018088777, 155.8651958807876, 155.7538908102767, 156.02283994418596, 155.7146326048631, 155.79499509135792, 155.58821259812512, 155.44961889446088, 155.1416743024531, 155.01855835835363, 155.6318353393633, 155.42723646669725, 155.5507753166803, 155.5072789572823, 155.7419899859994, 155.6441824929055, 156.0345376420149, 155.864847241591, 155.26679066796305, 155.71385888736842, 155.42202485177657, 155.36391954557627, 156.06076748920302, 155.89875951521722, 155.81133815302277, 155.81948327181806, 155.84827069177103, 155.78893915479713, 155.58394646919407, 155.45763667193998, 154.30399985049036, 154.3251475454337, 154.49977560446547, 154.49621024263803, 154.41007423216976, 154.5732528105894, 154.7969276497502, 155.4300425499797, 156.19934242455963, 156.24885460628872, 155.6620657860073, 156.1802287373114, 156.28644768244598, 156.10939283565972, 156.2676166494983, 156.37346735678267, 156.3837560070419, 156.40746521562733, 156.3549012288963, 155.75385803941018, 156.12000727955402, 155.78251238317978, 155.31580686425835, 155.76023427984165, 155.6226263681474, 155.4507959787108, 155.01703001132503, 155.03560299268798, 155.62526997840172, 155.8916525718834, 156.0994489097375, 156.78346904950638, 156.83711770046258, 156.15641345780955, 156.36253819709702, 156.15006623652636, 156.3309427348763, 155.89056366998793, 155.5340304565673, 155.49396583692035, 155.37477254394358, 155.62141696687152, 155.81936652696706, 155.6016895898398, 155.9859534741645, 155.81089424839865, 155.37588166236208, 155.16854048478598, 155.06799921339476, 155.09430316365533, 155.2716022711796, 155.1803486321162, 154.81246733612065, 155.87525711286486, 156.00081217406174, 156.17670705657918, 155.9475659512764, 156.3613906941968, 155.74241617628886, 155.452015729313, 155.1669146825397, 155.33798465626847, 155.28484896862926, 155.612557616265, 155.66947285076506, 155.58546161505998, 155.32195550379234, 155.77090343183212, 155.14943199465407, 155.53880958869354, 154.61063757404034, 154.7261916960884, 155.1148644846666, 155.1503029904761, 155.18770807018862, 155.7255865627236, 155.98495085558227, 155.87885306354008, 155.34834237208204, 154.51582723859414, 153.08842262843478, 152.12661805305765, 152.13040725498595, 154.60662380792786, 148.2063145994832, 146.11718613572478, 144.73413907783586, 150.17359887413224, 147.090027272921, 150.65083743312633, 152.45728173303397, 155.44687190626772, 156.47104271205973, 157.15787908297634, 157.1506119489836, 156.7891485310249, 157.00354508819953, 156.93835931657367, 156.71489451862837, 157.4098702963614, 157.43671223405022, 158.5923055222175, 159.11874746980237, 160.4900173590803, 161.69002097525663, 164.10242972177798, 167.40364685060064, 169.10744184442242, 168.84291374492668, 170.25553574658295, 168.24988311732127, 167.52040113481465, 164.05912776991985, 161.45247656663392, 158.79033698895708, 156.5014304266812, 156.50586995358861, 156.39834353686953, 156.20543335213384, 156.79097096595927, 157.03461347341522, 157.14131504722963, 156.9132922514364, 156.3947007119503, 156.93437608686332, 157.29261657845632, 156.93991048879207, 157.0591830813066, 157.00794771913303, 156.69416236455436, 156.64083275844146, 156.43478957840242, 156.68428484110476, 156.51407211961302, 156.21842213221043, 156.38236578528463, 156.32929834360465, 156.30474248595866, 156.45646463937075, 155.8319461974468, 156.56261776217795, 156.8090708380308, 156.74329501915707, 156.9848419536827, 156.9400085013933, 156.6500427740122, 156.50914127683072, 156.63457005347092, 156.58309741647605, 156.65840938722295, 156.73098050699755, 156.46467689067458, 156.39776784018838, 156.30180622105945, 156.456588830752, 156.36865087831592, 156.1612368465796, 156.10089080974984, 156.46125800219707, 156.12551517952298, 156.3506967391099, 156.27164330683118, 156.62997153045106, 156.3594134908411, 156.60080793937615, 156.96122752570017, 156.8902545758971, 156.47007730187278, 156.62112676056339, 156.64025341635988, 156.7870783753618, 156.53647866342328, 156.5226943357393, 156.81884929787103, 156.9243042671614, 156.33199882777788, 156.22062022013898, 155.9704826990999, 156.0812065290554, 155.826485384601, 154.942157622799, 155.21243612615928, 155.24427128723025, 155.88876947120914, 155.46588911742708, 156.2042667119168, 156.3443908380226, 156.0502423726662, 156.34687304624595, 156.47114438219262, 156.64185115413852, 156.49227222915013, 156.59685861401107, 156.30295594504975, 156.54201918727833, 156.6011575562701, 156.09731794246386, 156.35749255204084, 156.35336937449614, 156.41635346353746, 155.95751275323954, 156.21948284811023, 156.1057176284465, 156.2899651382596, 156.1245754994403, 156.48238219795326, 156.52964502321495, 156.4116456009795, 155.9478391874094, 156.43432815162348, 156.17536360740385, 156.32339883742557, 156.26143324921466, 156.41591360666388, 156.21483039955828, 156.24420259402876, 155.91892418724504, 156.30435651478817, 156.44015125505456, 156.16307099980085, 156.53826320671692, 156.29835009181974, 156.09202407504748, 156.34758732830306, 156.3988532273798, 156.47799886353326, 156.6711844346295, 156.7332012791752, 157.25514313861845, 157.36903885282433, 156.64321708755654, 156.59797619047617, 156.71440809857646, 156.6894414078123, 156.79606671550764, 157.2025542025542, 157.42576298553078, 157.33020576053048, 157.31712988435905, 156.99102982737548, 156.9508433872993, 156.70030084749783, 156.20348397108359, 156.54297552789023, 156.65835086283207, 156.7831935017672, 156.92542672273103, 156.9337111355269, 157.06624771767798, 156.9462800380795, 156.81980845328897, 156.80802266342903, 156.88205125760834, 156.66573461158032, 156.68390875697077, 156.61739514181184, 156.5271475089702, 156.30806978765207, 156.22175397392857, 156.18576202608233, 156.33069031176288, 156.07332007313582, 155.537587121301, 156.00276877203777, 156.34008062481854, 156.54011533695547, 156.68988158385181, 156.59150006657663, 155.45664176221746, 156.5265112577511, 156.40622223911296, 156.1084357818731, 155.40640036804228, 156.0200036825283, 156.3868665239115, 155.70112424275334, 156.09003227607877, 155.94271086698816, 156.07849671256315, 155.93439016134494, 155.9082129921445, 155.92360223341856, 155.54510485578814, 156.62809807188765, 156.07878779278767, 156.3663897830418, 156.24066498348458, 156.54455177007992, 155.9222233230952, 155.53248102277266, 155.702709798406, 156.009812650452, 156.25493703626788, 156.43349467938415, 156.55335381098652, 156.40570802046648, 156.53852594322794, 156.8119308200951, 156.49703215675888, 156.00675856562478, 155.77062039013066, 155.8625480994838, 156.20479726571904, 156.61155437211735, 156.59658502276335, 156.45598486073206, 156.56029218741082, 156.75340456235247, 156.22543664505136, 156.24414068948602, 156.47181569256918, 156.30194188037413, 156.54526656264377, 156.82394483177583, 156.4970910091778, 156.6837030444653, 156.4598171192719, 156.23742349639858, 156.00459572701195, 156.0010900957019, 156.0232748560027, 155.73879897283672, 155.9251828443292, 156.63184770522236, 156.49626018591536, 155.76389886918045, 156.4142109598564, 156.38766544983795, 155.68375270366008, 156.124583823068, 156.03398396325855, 155.96779597827268, 155.53218559000248, 156.4610444393888, 156.31876826742084, 156.63454820624602, 156.49127080410963, 156.01882688586642, 156.5775364793837, 156.44792858020548, 156.59068273774156, 156.67593267147586, 156.69753510706343, 156.3146157136746, 156.41524034269685, 156.95085319317445, 156.8019017508334, 156.85499451675966, 156.4771575773404, 156.598415371842, 156.51142411647336, 156.20315314461237, 155.91755121725194, 156.1122981978822, 156.53879336936868, 155.86634855006798, 156.11547471993865, 155.83746338522977, 155.51334798260788, 155.87425346814013, 155.8013266514978, 156.1815080806934, 156.05168306233512, 156.13411936353344, 156.3967262709172, 156.49486382728014, 156.40136924430078, 156.11443536302312, 156.19283536585365, 155.82661890847393, 155.73685328449582, 155.66702887082067, 155.4034790647655, 155.4065243190295, 155.3202071856963, 156.03570040846498, 155.42904036253492, 155.8803696690926, 155.1959129836903, 155.66981065770793, 156.23489805774676, 156.4045561030778, 156.61987077084476, 156.64260497115168, 156.51403412741854, 156.0676806695638, 157.00371571215425, 156.5408518107996, 156.5227000827521, 156.8827588175952, 156.72088223545302, 156.67533171894402, 156.65934857366346, 155.93506364968871, 156.41082666514794, 156.03562471014698, 155.78692259336108, 155.88658653596192, 155.96498505373089, 155.98393857058477, 156.084067060096, 155.8712491062254, 156.6967449526164, 156.4003929478702, 156.82981867733778, 156.7531020693218, 156.7909934685459, 156.7818019056145, 156.7411649011586, 156.68054533464584, 157.17702864820768, 157.24697929137758, 157.14959655960993, 156.7055252263536, 157.2405940404147, 157.34823841059603, 157.07327501592, 157.21399771376096, 157.09595075878573, 157.22810341198308, 157.57432041363612, 158.99649804679794, 157.8537234948998, 157.90086806738228, 157.67945343289267, 157.67867276282325, 157.21926818375985, 157.36894124018414, 157.25586047655088, 157.36150649425872, 157.60700146877159, 157.69626301975947, 157.61253879517605, 157.5471045766447, 157.1439937575099, 157.2712438822125, 157.00065414402627, 156.7543690106113, 157.08710952587583, 157.19729189342104, 157.21530734481215, 157.55077041602465, 157.43430291355645, 157.47048859117407, 157.50989745854423, 157.74132734015924, 157.55606549183756, 157.0389061070421, 157.14221925928769, 156.98343693219852, 157.23812457583475, 157.0273834011805, 157.4044277823161, 156.8599886661608, 157.23251343648988, 156.47102470805632, 156.30577602356743, 156.49193721472622, 155.61119121666195, 156.13071761877157, 156.42861509949464, 156.77663730371506, 156.83857360672218, 156.53517263865513, 156.58079242572515, 157.327337920059, 156.94961821097732, 156.85091162621893, 156.74811498361063, 156.63133587676774, 157.08526939124698, 157.06837471664295, 156.05177457375203, 155.84206000878729, 155.4384805362813, 155.74998700850824, 156.02507107169504, 155.94442051451966, 155.67980932603362, 156.1093875609466, 156.55316848752702, 157.01295816718766, 156.7763610576048, 156.73961946407297, 156.48457439215872, 156.3590401033209, 156.27990260632302, 156.66229167358912, 156.48471841965167, 156.79635593868267, 156.65719651829042, 156.66876023900159, 156.46194285714284, 155.94722308759805, 156.06058630074847, 155.90717383200501, 155.8570040837114, 156.06175529476266, 156.17259163489487, 156.67289076938505, 157.2969923908498, 156.78878151844276, 156.79438942307692, 156.5716695900703, 156.5617995730731, 156.9187329599442, 156.82697057841781, 156.67084290056118, 156.6805028327261, 156.7165739891462, 156.62354046628764, 156.51658197251723, 156.54572915477414, 156.23470779959067, 156.18723124447115, 155.97004503126777, 156.11156756145593, 156.4963061598753, 156.70486355759527, 156.63044545372227, 156.53234877430987, 156.54097397105133, 156.51360865910047, 156.90308904566186, 156.56331163379755, 156.53265372508875, 156.51499633885456, 156.43091876436245, 156.27624709351102, 156.23481796852974, 156.00316095647494, 156.16512764283843, 155.6639065867696, 156.27311880151524, 155.99222569223613, 155.59706029510335, 155.74513605827295, 156.05417967691804, 156.3081805729885, 156.28760532351663, 156.03383033811264, 156.56207904191618, 156.36832012701024, 156.46475153113016, 156.24257599802343, 156.11166403920302, 156.22389162796463, 156.0134540873327, 155.99124136849457, 155.83528308943627, 155.84251579966218, 155.8630291752509, 153.53596822601565, 151.01822814859472, 147.8115686505598, 146.13779635272695, 144.83272953159528, 144.4109625402303, 143.75904647329634, 145.8509572745151, 145.9844401859914, 149.7794088965212, 152.89453589085196, 154.82404150835018, 156.627386674206, 157.06944180748056, 156.83228337884978, 156.9799291226443, 156.7452821635962, 155.9007982688146, 154.71919145346098, 153.77647337229402, 152.71157039944785, 153.99591525893103, 140.75113611888864, 149.14905610907184, 145.6367772473171, 146.39780491276588, 142.15648284730892, 144.62977351784636, 148.1299390622115, 149.27076293834676, 151.23906841044425, 153.10633981558402, 156.51713691906585, 159.4057551937114, 161.8743573973831, 162.51396202026345, 162.32561407506574, 161.86515454937103, 161.54502737831336, 159.97719191206613, 158.52573909152787, 157.3394629263833, 156.8868781283179, 157.16571720051294, 158.38181204981814, 156.3985053162647, 154.77302730760132, 156.71829733582362, 154.4036110623435, 168.1152605368385, 169.59772374819295, 176.65545077828847, 170.7320678667145, 162.57805221166998, 166.7903680580031, 161.89604697794329, 161.94739495398665, 162.8242657242466, 163.49207164316633, 163.71089427768032, 163.48678957735274, 163.6142522614846, 164.01609143580694, 166.72495923625237, 165.13793036703683, 164.99868933980312, 164.8564081405502, 164.98663143913421, 164.83106086756416, 164.8475575948762, 164.77374838466636, 164.96064070387723, 164.98095711289577, 164.81342952222258, 165.19871702395722, 164.89623562568835, 164.73894655901577, 164.68299765853, 165.16409813474118, 164.2537367793012, 164.20913997840952, 164.78609470741327, 165.28081623489447, 165.41822861051378, 165.39809627683306, 165.38426913527204, 165.32186295017516, 164.97288232065537, 164.4810475743017, 164.58976910423817, 165.04097134660248, 164.51643170882613, 164.83466538871798, 164.17687123492053, 163.93291082353662, 164.26299106321193, 163.66930972765422, 163.6496560305569, 166.2028116341314, 163.7971518083109, 163.2775142194643, 163.4149612288341, 164.12770521375518, 163.43520292497018, 162.65129434028242, 162.80970745640718, 161.8600337700863, 158.64216778393612, 158.44313502838804, 159.25882078236936, 162.16310825004942, 161.14424581926022, 160.1156832919702, 160.69180651928352, 161.59281620331654, 161.52868702013805, 161.45149038362433, 160.15897531636628, 161.38934026483372, 162.50856508158338, 162.96646956266017, 160.6430717846157, 159.5808576414859, 157.88837609664054, 159.55850325293557, 156.92886778980684, 154.3585782567461, 153.5677793999289, 152.46387114024654, 152.7798188048892, 154.01338040038203, 153.79236311509203, 153.88985816168912, 155.0127675057057, 154.9889316810991, 155.0411344343777, 154.61889845500647, 154.97565940123823, 155.96137062804675, 156.13204146011716, 157.8443982512265, 158.52130243456395, 159.63415602050182, 160.09870009418222, 160.53184780123465, 161.63951718658768, 162.41570292434446, 163.0004481739296, 163.09200342302938, 163.52751659950655, 164.09436810178175, 164.74959078783485, 164.5743752270598, 164.86472513308513, 164.86227605083837, 164.38221445676444, 164.5728164154712, 164.37178918869964, 164.62406619159214, 164.61294671026215, 164.6663461308456, 165.01885923017474, 165.33338957070004, 165.253615160069, 165.49270852459966, 165.609898234322, 165.40641593026666, 165.61953301676166, 165.59571070592025, 165.6032922007907, 166.04431962767836, 165.21660143056306, 165.3556402417075, 165.59947069797488, 166.07779407052058, 165.66385934091392, 165.02852670279378, 165.63767789220225, 165.62657323888308, 164.118697232505, 164.41670346972867, 164.48715231661063, 164.63035144690826, 164.3955480603842, 164.6770198014551, 164.32952763857762, 164.469485250209, 164.26338293878803, 163.8812122884824, 164.28203460823082, 164.83434329842908, 164.03370834805696, 164.2503436229311, 164.02619400487643, 164.0081373543313, 163.78881047424412, 164.2208627165415, 164.23578293713254, 163.8346743686983, 164.05319975406672, 164.20287747141126, 164.98536334886577, 164.00462429945668, 163.20971121177803, 164.03021972795585, 164.15523816325071, 164.12513205330453, 164.64390697057166, 164.1356595744681, 164.44143489148976, 164.87862433610402, 164.0849917474531, 163.95329178749924, 163.49487173424754, 164.1021561359598, 164.5152873109543, 165.12743052376433, 164.9979470166835, 164.073796883273, 163.95840608333094, 165.00307868719767, 163.95438526307768, 163.93350892512058, 163.86050936628897, 163.6672443015919, 164.01926813471502, 163.77298225149485, 163.35261057798758, 163.92886938467348, 164.76342147435898, 164.12582929379337, 164.5704305558865, 163.6678680501546, 164.2161208323199, 164.20061878706275, 163.9128772003353, 163.7084235625592, 164.64640639075705, 163.69339439277147, 164.43992546382566, 164.3256138806634, 164.42035923557123, 164.2567886743297, 164.51442525528577, 165.06862773275085, 164.9733745536463, 164.7231371766171, 164.34204331561145, 165.52297461851668, 165.3650599775678, 165.1962799944563, 165.37638048673347, 164.87806217730417, 165.18294685390794, 164.67484019200793, 165.2374949730941, 165.11910216614612, 164.3502698740588, 164.6353152963872, 164.8828951909802, 165.28646625955963, 166.0502896286737, 165.3612989874005, 164.9750637574384, 165.295165467903, 164.93324279996747, 164.85331448709255, 164.91513782196114, 165.18059605641844, 164.9008767680222, 165.10143817751083, 164.76567059396626, 164.28986982349835, 164.51621388508988, 164.10059272687582, 163.27640247319374, 163.54529739662513, 164.18778836473635, 163.88669761531057, 163.53320743136376, 163.60893912878967, 163.89796869575142, 164.07964255554654, 163.96579219701556, 163.4521622057248, 163.63253663907662, 163.65526514235304, 163.79436520099023, 163.61293861204496, 163.78434184248135, 163.99952071143505, 163.9155705035937, 164.14739579605373, 163.81527420123987, 164.2876864957919, 163.45433851926987, 163.79402571164457, 164.58438530076432, 163.83684601678846, 164.11607049097384, 164.37581932823477, 163.57469388143585, 164.65385168082926, 164.0399051399996, 163.53497411782553, 163.37989138661823, 163.61648284952915, 164.2356101813771, 163.6667375765827, 163.6683130411767, 163.46734081512108, 164.2159474279415, 164.06530695939952, 164.30614293841762, 163.9457164345351, 164.14890578581867, 163.93914364785627, 163.72850058135398, 163.57168330787096, 163.6896785414702, 163.58295826175026, 163.69373644962238, 163.96843520747296, 164.04289652004135, 163.73296571018037, 163.95976142192532, 163.92500985462644, 163.6056254079982, 163.1224082539593, 163.75828112717656, 163.11669500717593, 163.5674363652821, 163.4910904217264, 163.31388190202418, 162.8624868383268, 161.17209128142898, 161.38885121583158, 161.65305262149408, 161.82612348153984, 161.560393103943, 160.58333854224264, 158.92673621288637, 157.8004553406667, 157.15545076229927, 157.03430785454233, 157.49130136887848, 157.67808843640785, 158.2277405474208, 158.4137731700845, 158.74948826581615, 159.17928992670056, 157.74414229600254, 158.9852554864147, 158.26298237483456, 158.98169076239722, 161.81809171821524, 161.61295746500255, 161.7663339253659, 162.64125226179337, 163.49607593670035, 163.9632087024741, 163.9520948080833, 164.0807585042312, 164.20366856722282, 164.00864624741422, 164.14505291650525, 164.18724637404398, 164.2285372148831, 164.1498738635823, 164.09053157724688, 164.11412404642817, 163.97451728247913, 164.19184320507276, 163.05727039785504, 163.1368571278058, 163.94601240111183, 163.5798347123518, 163.5173085869592, 163.29101527846228, 162.58163270337297, 163.32287701666493, 163.01915974842768, 162.85588866718865, 161.51185084541063, 163.0591149969417, 162.50740208408192, 156.20188186298597, 162.02395639076173, 155.81520248251442, 157.38361679972232, 154.63241125999346, 159.81497482041974, 153.02092218128368, 151.35733027300128, 152.10126582278482, 155.906730366611, 161.22757905650596, 150.77308198752954, 151.18864094407888, 149.49670542728663, 149.55487583722223, 149.31030530675142, 149.16526457049682, 149.02254501365206, 149.1936948538179, 149.32980913800864, 149.0483248278348, 149.4120385247916, 149.0940476302848, 149.60056733564994, 149.68726924589916, 149.04540865418798, 148.9597795357898, 148.66835757495306, 149.32004157431882, 149.62503859435787, 150.08636052416364, 150.3737352154941, 150.58553246257983, 151.12766427706558, 153.0977826476156, 152.87440507411077, 152.96061288214364, 153.15663471058414, 152.84046254360806, 153.28527983448433, 153.2419763129561, 153.4203514182682, 153.3769967439188, 153.95967439489954, 152.6038113913387, 152.71937658322958, 152.70306505213014, 152.84815765378977, 153.49509740770958, 154.36774175002873, 154.26385012425922, 154.55660876150918, 154.98541143747113, 155.19461576253644, 155.50571492764917, 156.90661262963107, 156.50811493406167, 156.861732831285, 157.566481297869, 157.7836289850623, 158.45596011120628, 158.41841020158827, 158.6612598244726, 158.83697503853256, 159.28477474200156, 160.05953046933774, 160.78638716631303, 160.78853905864838, 160.8785321490021, 160.8682491383413, 161.72322404107405, 161.94244153238446, 162.44152299614032, 162.90032462813122, 163.4514874775821, 163.5618180056207, 163.58088129063327, 163.505400540054, 163.81100594384293, 163.94693789534213, 163.97281624124147, 164.19522538538578, 163.99147330366273, 164.03105156485444, 164.08192531455225, 164.2017556954162, 164.21771549163822, 164.22122244112504, 164.74110885733603, 164.01702420878146, 163.7466345738088, 163.19832287518028, 163.7796619990343, 163.16361538461538, 162.97849374359075, 162.49888492952277, 162.00241655700444, 162.13233648078526, 161.61473383848988, 161.05047180579865, 161.23191324259608, 160.67194108314192, 159.88111242915514, 160.0144549763033, 159.47663857411308, 159.80776491557583, 159.6603391363763, 159.23361926216884, 157.5206401457119, 156.72380772677957, 156.78676309965903, 157.6704613769741, 157.11084290219014, 157.57995202638068, 157.457009193485, 157.8241395545477, 157.62052409906997, 157.63388152871107, 157.32990306732174, 157.77989377047928, 156.8685233866193, 156.69018909225295, 155.50599845291953, 155.87903522075376, 156.50669253336756, 158.4329238209218, 159.86458979955546, 159.67592499749324, 159.09773947063994, 159.0099477088548, 160.2658817447365, 159.9546270407467, 159.59747078388617, 158.16568544169854, 159.08104349898937, 156.99870577667886, 158.93479792480625, 160.657054195058, 161.43322134936471, 159.4562931811355, 158.95889054228772, 160.5662172839506, 161.89320398227613, 161.77681599415146, 161.12043327617334, 162.45504587155963, 162.39631169678253, 163.04061248262894, 163.68468491524035, 164.23027912002775, 164.51320547722565, 164.4829226395572, 164.84429702223898, 164.58087614992166, 165.3220668693009, 164.67739258991068, 165.01592124024444, 165.8126382834374, 165.43443877809656, 165.0576754628837, 164.99908709696837, 165.4171196880935, 164.88555080821058, 165.46902898159533, 165.81264718796155, 165.51407981769486, 165.89040549327134, 165.6988925310575, 165.1549723462578, 165.6361197902747, 165.6157295752821, 165.99569030586653, 164.45271846145025, 163.74524454897912, 163.78436397364672, 163.85461383983397, 163.74195131810703, 162.3738315972388, 162.56488888676623, 162.62916886361802, 162.7164153570529, 162.19078816756007, 162.22424726406712, 162.02374825901185, 162.90238274583092, 162.4093160883883, 162.61388234392658, 163.41383051566675, 162.2910802175978, 161.72510769614112, 161.53744121721707, 162.01420921580126, 161.5952650027774, 161.53938109611715, 161.4844247846794, 161.99936717356704, 162.5449216488479, 161.18401159879244, 160.72089400545218, 160.57723638593427, 161.3614299287411, 160.57869279073714, 159.37440479250097, 159.64666396674443, 160.56524039415385, 159.21951987961722, 159.64535831195883, 157.8039354367295, 153.50133204606828, 155.9625205758932, 156.8839875604377, 156.42597270883277, 158.39374490532094, 159.549369559682, 159.57640255847434, 160.05363516724893, 172.46071490698617, 166.83464051624424, 164.9461360069573, 162.43799283500692, 162.91636900440443, 162.23129040278468, 162.211081469709, 162.9344950369952, 162.66721672431078, 162.88533219039545, 162.78636579549652, 162.65000793730968, 162.7037126024738, 162.9888005225142, 163.46190464718495, 162.5708487862845, 162.53507163680402, 162.79840981415785, 163.20294029663512, 163.94511616129645, 164.03426730545226, 164.03765883974538, 164.093071339541, 164.20652227152948, 163.94533124215195, 163.98790538631647, 163.89622898505604, 164.38171040329726, 164.04084183698285, 163.9795113341037, 164.17658099491038, 164.28067983616515, 164.16259947339776, 164.07705444260674, 164.5729583095374, 163.89728117292677, 164.75418517337, 163.8383025291829, 164.44971156380245, 163.58789155956828, 163.8886474215002, 163.6342347406011, 163.81577010261535, 163.47334079316408, 163.53195233766172, 163.07786877367016, 163.00278458080317, 163.85186414266752, 163.89313249296478, 163.41426863980877, 163.1140432061764, 163.59330625366132, 163.82269832975285, 163.24555074439238, 162.906536422954, 163.00916790277046, 162.67355636155386, 162.873225161827, 162.2746242465858, 162.82012430899664, 163.20667661302392, 163.08653596406, 163.48133515774057, 163.31662082628097, 163.4373064083357, 162.74646904135787, 162.6759496687479, 162.634519550976, 162.88851068311624, 162.8056346642711, 163.12969563630074, 163.33023363271437, 163.15587342161402, 163.05263183111816, 163.22724235242083, 162.8929254119812, 163.35492454461638, 163.28816874603513, 163.09088729476753, 164.1237598088397, 163.06746557584836, 163.0698200252512, 163.76322328204682, 162.8114234038357, 163.49443739158244, 163.37463639691012, 162.5175667115935, 162.8926880614218, 162.5322283521913, 162.78161695364744, 162.59104587577323, 163.16177421000714, 162.61901821993138, 162.5351620662009, 162.5500157522411, 162.47988848683897, 161.9390750733693, 161.71193336371365, 162.6341870081366, 162.65286690914633, 162.14671755870512, 162.72794216157249, 162.42816372656054, 162.76623095255292, 162.56769773598816, 162.4885142265068, 162.53445683049674, 162.6363723346745, 162.69077307923655, 162.65918737183463, 162.83237705114155, 162.84496060918082, 163.61914800005803, 163.04792384388765, 163.28241474876492, 163.1275429342197, 162.8298229702039, 163.9593555012983, 163.27753316697658, 163.25623779144175, 163.18176471438971, 163.38800592730337, 167.37720515161757, 163.24763071895427, 162.83836694160692, 163.26139423312284, 162.85970753677535, 162.7965725181973, 163.21952194926868, 163.395570956423, 163.5623999609604, 164.31490444981708, 163.33839946330232, 163.52269687748338, 163.50047773466906, 163.28526683416362, 163.48938940242158, 162.92124188152877, 163.188280651341, 163.57467585360945, 163.11800464437877, 162.9619688303712, 162.7159467721115, 162.47112884146605, 162.483160087151, 163.401917310491, 163.02313801786417, 162.84451259140866, 163.00026147968447, 163.12471760636626, 163.85536822122629, 163.4145357184432, 163.74667124859033, 163.26178817904923, 163.30126938406403, 162.88737106749898, 162.69051267165983, 162.6466134041393, 162.90704868878206, 162.64987982307682, 163.2243898927363, 163.5104275737519, 163.25116218447235, 163.27280333918563, 163.11187957689177, 162.53177515843205, 163.91080391592564, 163.27243591292958, 163.2554514865042, 163.19751450118846, 163.88031711478496, 162.9388680990016, 162.69235223160436, 162.40065395619456, 162.29632311336587, 162.26613077592046, 162.12065827464954, 163.55689029918403, 162.4824797972553, 163.06811697574892, 162.52084221212365, 163.30271530577548, 163.7406028082831, 163.299385820679, 163.51298647737252, 163.76853012777042, 163.0628772950863, 162.34893481353882, 162.11976027983195, 162.16484491667342, 161.50563326959664, 160.84211936243085, 160.7229694540138, 159.85059819638326, 159.53009753920088, 159.2167355597424, 158.86805024939608, 158.38484417187198, 158.41094309458379, 158.2397256076, 157.7436867613298, 157.6491942540642, 157.6234107909781, 157.84823616518187, 158.383955295472, 158.08304117191594, 158.12579714619253, 157.96840146902485, 157.79068669031463, 157.88050822985852, 158.55644294717277, 157.69576443811144, 158.248862991702, 157.81478588406685, 157.7787483059654, 157.7010524405734, 157.62445362810007, 157.6759659825334, 157.28274375975963, 157.1314321493625, 157.12767008038134, 156.90482620086507, 157.2600825051745, 157.7297426234959, 157.32218853732945, 156.99054981997384, 156.49325303041854, 156.42950975952715, 156.37917561001146, 156.86096157327563, 156.49155103139267, 156.73224282010324, 156.56742897335727, 156.95472332780673, 157.00971820550205, 157.19650118158074, 157.40694139019027, 157.25314433161788, 157.18860409963452, 158.2980870185037, 160.90457913191622, 161.72655147462578, 160.2325075440475, 160.75608050961392, 161.87014221400065, 162.0551718853757, 162.04971811381594, 159.75081329442935, 160.24199668644113, 159.93567186465577, 161.02924025612336, 159.26219909224966, 159.2580181605127, 159.3170852412229, 158.9977030092024, 159.44376174817737, 159.0719746079307, 158.38261942804655, 158.86632592507513, 158.6776827334783, 158.88829507034836, 161.76901220123685, 161.19179693004406, 161.7443529292137, 162.8395344857094, 162.41074870129233, 163.09359917598587, 162.67993828064726, 162.79384171395031, 161.10758409580518, 162.8312722096838, 161.2833019741932, 160.9909133138675, 161.66649615879223, 162.14826712318884, 161.82753774225316, 162.21544969175517, 162.68442678488464, 162.8374365684433, 161.85619080029494, 162.01716916735214, 162.0815847180476, 161.93799413068444, 161.92857683286675, 162.12766492643567, 162.23980107567897, 162.5501190224799, 162.33799124134998, 162.3151417716916, 162.80573535871335, 163.17482974428972, 163.34974391339173, 163.68139905847568, 163.23099399670613, 163.45916069108233, 163.55196006275298, 163.00031646024829, 163.44631805586397, 163.09734225154529, 162.79340642621455, 163.01310236250345, 162.61203601521316, 162.57949490499269, 162.57045572855048, 162.72845066946383, 162.75728789323165, 162.76525626314782, 162.60954355857464, 162.44469356539582, 162.663699269906, 162.56893249107597, 163.33830612567024, 163.15558822684304, 163.29963038149225, 163.3802408765734, 163.44323383251145, 162.8772075608661, 162.82750079783563, 162.4767357911636, 162.9060033781527, 162.83549393945196, 162.68873676944315, 162.4862429406755, 161.87747080657962, 161.87798918867432, 161.8192759666414, 161.3287387844769, 161.5072886713766, 161.38800232742258, 161.42644671255638, 161.49169914688972, 161.72748680432494, 162.24495719744374, 162.20427939708048, 162.48549769593993, 162.36493037697394, 162.5992854447581, 162.86281172054845, 162.61115683497303, 162.69742605348944, 162.93763043982378, 162.14478053607618, 162.42641841428312, 162.49165371840743, 161.89638993442702, 161.86186629923506, 161.66246037291052, 162.3096782538709, 161.9832759893043, 161.59110511100724, 161.90369257417925, 161.88286672310954, 161.7926634237356, 161.98315756485076, 161.83330562772207, 162.82963394987067, 162.5285203538805, 162.87516737295255, 163.07232794495403, 163.5024609001113, 163.27711258715453, 162.49912666269987, 162.43111025905245, 162.33158894241117, 162.31094284785559, 162.2508566855018, 162.61619460853169, 162.81742716496368, 163.07391766023574, 162.71067187952505, 162.13456248283705, 162.17999029832646, 161.83422347288425, 161.2666966717991, 161.80250440933875, 161.8769789687698, 161.85851010028722, 162.05739438468848, 162.1757987594499, 161.8765184983963, 162.11201110522774, 161.921363021846, 161.64679810920575, 161.41432471114567, 162.01029668081236, 161.7348830366338, 162.1306639116238, 162.10691671535585, 161.95922248145828, 161.97091022390913, 161.69088577890065, 161.8902597710975, 162.29108286297017, 161.7663216936413, 162.05174570681223, 162.6191072789634, 162.9175471572732, 162.6460668811024, 162.5016921399978, 162.50262140625148, 162.42783534502394, 162.24452641486116, 162.10335759367715, 162.30434145326626, 162.07856637251663, 161.2542313994488, 162.33815201051345, 162.77267373380448, 162.64178948369306, 162.31562691552904, 162.21498521320984, 162.30092805772472, 162.15766959130963, 162.42832147828906, 162.42537568468117, 162.34723136601102, 162.61179079950986, 162.3601945632807, 162.47679262266826, 162.4601953566841, 162.39661490982735, 162.05519563038587, 161.888412855754, 160.8755105606369, 160.47838088206942, 160.74846935644524, 160.15457196289856, 160.52027360586325, 159.931540214852, 159.75594707388788, 159.21300601911955, 158.86458279270565, 158.53978214985676, 158.79250360539538, 158.3357434709748, 158.00078533908308, 158.20954903404905, 157.9456771015204, 158.23287476752276, 158.27060765305154, 158.57352572204942, 159.78577642766848, 168.1193773921919, 161.85295901484236, 160.30605530108636, 158.74233954353593, 158.6501975724117, 158.37035780266183, 157.90819002245584, 157.885369239443, 157.89591848319708, 157.77783658867398, 157.65340230047946, 157.86411334370553, 158.22115706690192, 157.83093362481625, 158.14654141839884, 159.01052656636833, 158.64946931153415, 158.97358420036136, 158.82260374001606, 158.98043839714913, 158.74367295201878, 158.41894593539666, 157.179363693544, 156.75636300790794, 158.34183282390015, 158.9122296765133, 157.98271824542647, 158.19978168529462, 158.9505904243899, 158.9607980964232, 158.53464698093597, 158.225608156764, 158.9942777036176, 158.84874291692506, 159.1500354962374, 159.3514319780726, 159.4316320973736, 159.58221529761389, 158.88170442276686, 159.14692721473793, 158.48821674923553, 162.8575778560308, 157.08519185353194, 157.7783095453859, 157.52664433330187, 158.44206179695286, 158.14679675136745, 158.50330571795988, 158.03274038964872, 157.68203996392805, 157.80112484871498, 157.23872921410666, 156.21698544414443, 155.51269310518745, 155.76304358046164, 154.88535909646544, 154.77516962006058, 153.68702096631523, 153.1755493580805, 151.20194319250803, 152.89130792329055, 151.87416239653132, 150.76697712939958, 151.4683863640595, 152.2750144275024, 152.62272725138843, 153.3570709399377, 153.43199045146318, 155.36373986812208, 156.86952953387888, 157.1222415135585, 157.14409077933198, 154.06259161672202, 156.81378695897368, 157.78655571270804, 157.87798345730886, 158.0086738426168, 157.04902229101, 158.77707709660993, 158.58048724900408, 158.21318480085455, 158.6269928755148, 158.931444869262, 160.15946045824094, 161.71349757944685, 162.61273852152846, 163.08897781777452, 165.36008163305067, 169.9879186760082, 170.9091183423025, 172.88947874916718, 173.3181789000642, 171.05957781347814, 171.4806450959132, 171.6480269031605, 168.39786238079333, 166.05241921544032, 162.68228666259063, 161.35402649716724, 159.82455587693423, 157.8138313640791, 155.19611777051483, 157.20752309015796, 157.2209095193214, 156.32109038603002, 157.594554244277, 157.67542622740672, 155.81166001066208, 157.2883042980972, 157.87869078135384, 157.79303479757115, 157.93599090456905, 157.49697095220836, 157.61951337118327, 156.47283902866383, 157.62670435177822, 158.3856227149708, 157.8885843536318, 150.65740345900232, 156.54362114277416, 148.78382902021374, 148.10767669189525, 147.2379381352962, 147.54665565285399, 147.43169629884025, 147.0215519334066, 147.2451402836641, 150.0962157318017, 153.91450796486527, 153.17117142065908, 152.48615661334875, 151.4229002205976, 153.08483635790978, 154.44410653525756, 154.7837918646095, 154.25283840945556, 153.64985482813526, 153.9680584139156, 154.60857181928353, 154.54227642276425, 153.5504262423519, 153.62461340686366, 154.15447593131273, 154.94246181440303, 155.4005008227803, 155.1500628407858, 154.716535733172, 154.8170369033141, 154.69426350272636, 154.92607911711397, 154.0592465269602, 154.6860699292765, 155.22626304861188, 154.30500408707826, 155.17633992005003, 154.8369140949999, 155.2164041483284, 154.5849894552847, 154.0576727221051, 154.23724092772548, 154.3677602843122, 154.24045812387365, 153.6933203062313, 155.17525182056232, 155.10267572478534, 155.48025494226815, 155.80532141622825, 156.43964268932385, 155.55328549598033, 156.52040340611768, 156.31215400040867, 156.18401625529935, 158.05804905798638, 156.31697918735165, 155.17823461342053, 156.81613416111446, 155.84047715516022, 156.46791059593258, 156.83768543051048, 157.323039511368, 157.3162909355964, 157.1825975869411, 157.0477648006444, 158.10820494446438, 158.75773328750643, 158.32238838679555, 157.15244162566478, 157.6374357523459, 157.81215578654536, 157.4643163585384, 157.69701079917678, 157.86177594505614, 158.27281705991007, 157.31108012098713, 157.31107597617097, 157.23387600137036, 157.21849806087673, 157.5939453088343, 157.94322041073593, 157.99837571386198, 158.6164514155351, 158.86178421679938, 158.2299041810615, 158.0438379759703, 156.39488435980252, 156.5864550569367, 151.62618922899907, 150.7217209316762, 157.71563273814243, 157.93573670657668, 158.38003554642012, 154.57462662657164, 157.821775767585, 157.64928821032387, 157.4713192222035, 156.4205455386038, 157.46086327915492, 157.9010021815235, 158.973115262427, 158.25948909965217, 158.5722081502788, 158.77511630589413, 157.58187264992975, 157.80240162147695, 154.80670281387304, 156.47111600892958, 158.0465266965175, 158.64063635078276, 159.05977370923512, 159.157051787333, 158.99087554478942, 158.0562852056154, 157.2292995174939, 156.72753773029478, 156.55104002460686, 156.45661847032932, 157.5893491182298, 158.89695027292302, 159.18123078789841, 157.71834204473132, 158.12626092719887, 156.23531661096405, 154.859582220887, 152.19597816420367, 151.93279409677876, 154.71444679833255, 152.53130832130833, 152.34684632862607, 150.5332384180578, 149.02706369376443, 148.4402419946562, 148.44828961848862, 149.91038508045764, 146.0412911933416, 146.88922797756518, 149.65156282091976, 151.57995126978773, 152.0022849782951, 152.34646601690406, 153.94358901478026, 154.05987750206458, 148.12991598572907, 150.0898716119829, 152.20517168091436, 149.87642696054496, 146.16358470162928, 143.58411035835263, 146.15841790315133, 146.30998287764805, 150.21027250423367, 146.95868251446933, 145.49766574137496, 144.32104609723203, 141.5891422319475, 141.5947906377875, 141.76000899288505, 145.50762768174909, 141.57947358857655, 143.2894041283084, 146.32104660835836, 149.5099118581867, 142.4783580401843, 141.3993769004974, 141.52362920660642, 141.19021741514143, 141.77352904897003, 147.54121114043235, 150.69424947025882, 151.07820215756286, 150.58312535450938, 150.71906630180345, 150.21814982450528, 150.2369867853862, 150.02377816454208, 150.9943016016349, 150.6293933495309, 150.34595800054691, 148.29305401298396, 149.06271724980985, 148.4393415576832, 148.83442859580435, 147.0059877240274, 150.27614497144856, 151.24441353906295, 147.42871641545403, 146.071665452637, 151.1191691372387, 152.52293330557555, 151.93514347307197, 151.58575275166518, 151.2449789355626, 150.6364583040162, 150.89625212385923, 151.42180481441954, 151.34414582136122, 151.86163855237658, 151.39155022491622, 151.4252924046403, 150.82235218167318, 147.25008434430964, 145.1057334731852, 144.17354257865858, 145.02314631583258, 149.01984084133431, 148.8018308116317, 149.90651596746252, 148.3205596503816, 147.91844466136754, 143.8939257996501, 144.80327097731302, 146.56613028927705, 147.83985656448814, 149.17719912718556, 150.01893418409549, 149.80317340027472, 149.50077667244253, 148.89066456586573, 148.15145248554052, 146.69554759962955, 147.55530935663606, 149.819430851288, 148.5037178167793, 146.65849460193888, 148.82990620913347, 147.83679971429376, 139.2128337290786, 143.3669483294939, 145.91655829670904, 147.14610483022747, 147.18250184619123, 146.32272458267968, 144.58032429486306, 142.78357355080823, 141.03636151003414, 144.57642275260145, 148.14312411730302, 148.98478981385608, 149.74993131542797, 145.11035420478447, 145.50977085109196, 147.69296131719344, 149.89583510091725, 150.6638367597246, 149.38319928507596, 145.38177888611804, 142.63711114481242, 134.53113030925044, 140.85260650841798, 144.325153861611, 143.40934873419755, 142.5958570852099, 141.2585714485387, 140.73155570636166, 142.51901410793113, 145.48681816016386, 148.39558244419652, 150.40194402499597, 150.32906899461221, 146.07364519136743, 149.97646673528587, 148.72451988280002, 147.62177022349277, 146.49230322129486, 150.88050837894264, 159.55225539377625, 158.41099122890697, 154.08396054773533, 154.6606355554485, 152.82652613087396, 157.36870947975964, 156.51959522780575, 158.31000196213088, 159.5534000428776, 157.0027557749337, 158.41135644490438, 157.2990477853612, 159.475192740602, 158.76043911604717, 154.71621634455576, 152.24331140300325, 154.57673819621016, 153.24859792874233, 158.33852742578816, 159.91700433003615, 159.82712628610017, 160.64409433214428, 159.49508259474104, 156.113622165007, 151.36961712676467, 150.77177805641503, 150.17372299238167, 152.47263013735778, 151.06305429230628, 156.94358986293082, 151.1249788148822, 151.80042720498676, 151.23891986823747, 154.39451827242524, 158.7238983807666, 158.37401175849783, 159.23711199684143, 159.71531705196713, 156.49903837687285, 150.8794584293565, 150.39898387979588, 151.21091156656314, 149.9061633404055, 150.85168915152192, 156.98911757198877, 158.5005808234578, 159.7106924461279, 159.61658663512713, 157.27525625667153, 157.88975252096705, 156.30333492161154, 157.73387127075975, 159.76938170007475, 157.2679443079443, 152.30000900738605, 151.101922032117, 150.91924970482748, 152.25999333477446, 151.56618714708256, 151.20533719709678, 151.7366121942973, 151.6972608607435, 151.193348097407, 151.91252701239537, 154.5141723381955, 150.87795449180737, 154.73727535590265, 156.10314222016572, 157.58929161045648, 158.4232161348242, 159.7039568345324, 160.5788302255039, 160.29590983579146, 155.7177146345524, 154.1471188763275, 157.67252759651728, 158.89859926337283, 158.91142587891378, 158.02298423052895, 156.6588791000335, 157.87202016496005, 157.5536461639044, 156.16837279644596, 156.45249106530025, 157.07869218227066, 157.78537163361446, 157.62746989570886, 159.23310596524098, 158.70162309827228, 158.51071286454663, 157.64484573068643, 157.55821096257577, 156.26088835850067, 155.63661651815352, 155.63023936740615, 157.52720305048786, 157.04567675857655, 157.59021358518328, 157.47601394821555, 155.57099922028212, 150.7873013567431, 148.63380413515236, 150.92634831740682, 150.99721679157162, 153.85660787125335, 155.2296684973576, 156.96023136725256, 157.27288443996582, 156.86996118744406, 155.84274351345871, 154.78349510032663, 154.4024517378111, 157.07092516688695, 157.7725267679373, 157.221565305858, 157.08564772209897, 156.3608645477713, 155.81336141525264, 150.16471671664408, 151.91568330719676, 154.58165259117976, 154.09301558850433, 154.61757855805328, 153.02632549222034, 149.16921609116113, 148.8490774100514, 153.87560574891967, 154.57131210568738, 157.4009662291586, 155.9194240510462, 153.49642363296414, 152.60605272760444, 152.9085522137802, 157.94307817861628, 157.9437723372131, 157.77571593957094, 158.79409622924496, 158.98234922289294, 158.53646918725812, 158.981306377113, 157.8615326541924, 158.00295415326224, 158.285269175798, 156.31373255922838, 157.70194986072423, 156.9011882573321, 155.91520403940842, 154.79036297674077, 156.16233518857493, 158.69187199227753, 158.50156599977223, 156.66456502564438, 158.59135917861903, 158.15336096764142, 157.78328882464203, 157.27442720880492, 157.36319892259417, 157.88053593293773, 157.56922410423758, 157.72303363322325, 159.3495688851269, 159.2701030334427, 159.4746772212104, 159.24992262088998, 158.96273946087499, 158.88582378386582, 159.17508761542794, 159.05091422554088, 158.9188590378238, 158.31540025971051, 157.01247709706135, 154.87581244196843, 151.5933934015556, 154.01016369726372, 150.14612868047985, 155.65399147990368, 156.86092147356618, 157.74861128197364, 158.3290309646439, 158.6614721422168, 157.8746276185672, 158.33816825727035, 157.75816475633823, 157.53465079785224, 156.10067926369317, 153.511163071701, 151.8504665612032, 151.2711635212967, 157.1867612517048, 156.9372812094012, 157.50450962020764, 156.65478926842135, 155.223224854131, 157.19377550923778, 158.3490848855749, 157.41063643048605, 158.22112584304108, 159.07621742237518, 161.79266706857123, 160.6109056075455, 159.54865510739268, 159.65807544858114, 157.5651655838698, 153.7736726337186, 149.80691924930454, 140.9829318478835, 140.32001894019305, 139.43976470251198, 135.84964257309272, 131.60699126447236, 128.8583631541876, 127.43776834237516, 128.81377133674044, 133.71675628314983, 147.7497188092509, 152.095362595115, 170.8434005003519, 158.00798846387977, 161.48603738409457, 170.83996893100007, 162.07418341938555, 162.19784472493453, 169.03369834661018, 166.8218646027514, 168.90494897833122, 164.85431025443035, 162.29515664394546, 157.77849395551144, 155.85903120477903, 152.3962907166872, 156.37982648897005, 155.76813522221752, 158.1126562746325, 160.8169751840532, 163.22265129710783, 161.26845928808387, 156.33216395044187, 157.00469102630612, 156.82056632949192, 166.32651077669996, 166.0330079319549, 163.62710630913062, 165.0794892643402, 164.92878270977252, 164.49702822130928, 165.2519262650239, 164.31816681441802, 164.33020347226787, 163.65670847192516, 164.2098974485816, 157.0448445573486, 156.5211074129288, 161.86150193046583, 157.2585664011854, 164.99592857447908, 165.62087240114147, 164.828205971672, 157.59991628447077, 164.7861581611516, 163.60562726695898, 163.7950047193089, 164.03068735843988, 163.85795340860366, 163.1717907227616, 162.43474422252382, 160.9094957280832, 163.18245358159268, 163.9949174809885, 164.73025395017518, 165.04065351752465, 164.8729602771072, 164.76054780292174, 164.82451136932016, 164.6690265656285, 165.06746389891697, 165.76431525293327, 164.5960142136281, 163.9181915883815, 163.4293178672516, 162.70267221687337, 162.74301482451645, 163.1264455156365, 163.0868891571533, 163.1330787142208, 163.66744740692877, 163.40057617643973, 163.98708566922772, 163.85871252721688, 163.88748064266358, 163.7937913919299, 163.80960390088796, 163.1305909894415, 163.21960364984318, 163.02201765796156, 163.43395469268032, 163.66181856582617, 163.34702557743879, 162.78996109506647, 162.8163143608165, 162.50772781346657, 162.05619977934873, 161.24539467808577, 162.27233554393632, 162.775364185341, 163.08343580002966, 163.32345424468366, 163.67442006269593, 163.61104262447245, 163.55530960648147, 163.35997940802895, 161.81627623138493, 163.20282949049118, 162.8379017485429, 163.11598843461016, 163.75915287455396, 163.17644091249784, 164.10737904376728, 163.36874734032264, 163.37380244147414, 162.47743627970988, 162.91056789602013, 162.48520502870738, 163.87748060770633, 163.6183825131321, 164.1304948474745, 159.12668872410623, 160.5304094949877, 163.73256349025667, 163.71226981730115, 162.1820879173215, 160.59919485607702, 163.46830517988303, 164.81886702595526, 164.38468565209152, 164.7021211695725, 163.86742267246282, 163.5199886411767, 163.3837057576252, 163.68978201830643, 162.3911546320066, 163.53522692425636, 163.6529711637239, 163.09220917720302, 163.62683235575483, 163.35257031542383, 163.7745625254346, 163.68310822238868, 163.81728138945843, 163.82042392170797, 164.3248015911329, 163.47812817904372, 163.86201113538382, 163.69896313863862, 162.80758598552177, 162.7238616918562, 162.9849580920779, 162.26294098486028, 156.92459906645598, 162.60746617600333, 163.0568466316292, 163.4348161900513, 163.48549080430058, 162.7649466319635, 163.3567013975663, 163.54441451951283, 163.13215427476428, 162.5888975561496, 163.10535505295107, 163.28936629342795, 162.9303682622149, 163.3796374781505, 163.37128278074255, 163.0235348934511, 162.9032037558329, 163.18570067184447, 162.69587262811046, 162.2805177163126, 162.02703583677405, 162.72671467584274, 157.985719433767, 158.7922617803479, 159.8118435764644, 161.15326728001887, 157.46305556318745, 152.95539998670773, 157.1433955532788, 163.54181279114954, 163.7275015370427, 163.1728797674152, 162.8814352202516, 163.38758909612076, 163.82030646005504, 163.70932719590795, 163.560832896555, 163.0590880171685, 162.85091674749816, 163.50029795247062, 163.93291754888827, 163.12704270150846, 162.64509907316355, 161.26626848825452, 156.31738979583562, 155.08983901214236, 158.2138328030348, 158.55625140508076, 158.15117894360418, 154.97521626471786, 157.2015689881256, 154.38217413104596, 162.54526582971235, 161.3479643558262, 156.81723244667887, 159.7591191084153, 161.21481663863827, 162.08675309025523, 162.78352474984715, 163.00819227327253, 162.85728906342973, 156.6627920253945, 155.06180502148837, 154.50997191957765, 153.45252148792753, 153.1867440176616, 155.32285676976628, 162.43340696219332, 162.06605308198993, 160.43598672372482, 154.87297657248584, 153.9601738643485, 159.6032901622489, 160.50774238958297, 161.42117308176336, 161.34066559388046, 160.988639710523, 153.8820165995122, 153.9257824542591, 152.96428999188208, 153.36829704981116, 157.90111745169636, 157.63997994393418, 153.8809492044009, 154.83959619877928, 153.99082273241842, 158.2835339589351, 159.3045455812527, 163.25609837663268, 162.43010392064244, 161.94008860765453, 160.3386920664421, 161.57086185547743, 162.58730855250118, 163.57764659320117, 163.064203745574, 162.41276772914588, 162.34971965980338, 161.97399899923528, 158.82599537229092, 162.43633134760304, 157.39344121424824, 158.43954226026085, 153.84765902286966, 153.41376197535234, 158.1011599676288, 161.64356523692734, 163.25138703976575, 162.26342964064136, 156.25217367945055, 160.02104288287956, 161.12789422826773, 162.76380003290478, 163.19890400604686, 159.30364174589855, 162.71399536661977, 158.36769179394986, 157.84603495205832, 157.1258613396646, 155.45113703173456, 162.78839979822456, 163.24215733418396, 163.38769083969467, 162.96621194326497, 158.93064383700656, 162.81924799203924, 162.50822920057172, 162.57453107248756, 162.36840344686243, 161.36535499948664, 161.74694281838111, 162.11613422212605, 158.22936767530234, 162.5269647063266, 161.35334476843911, 159.3189745305508, 159.66887033439806, 159.1888288570219, 156.4832472835864, 153.49994024883043, 156.62940761475616, 153.30799247933592, 162.8046599722272, 162.08333880699251, 162.3712978785676, 161.25456283026648, 163.29197844173513, 162.5807114415406, 163.1469889909909, 163.37273260052316, 163.50139362179397, 163.54488932385368, 163.76785757040315, 161.54252359545274, 158.32885702746364, 157.62074103687013, 158.39656424568247, 155.28752843402413, 157.84402059122039, 153.37539619300574, 155.8724401343591, 157.55428234228546, 153.94003846033723, 160.98096381248885, 153.0496279452491, 160.28368978622106, 161.58124728287544, 161.57471577051518, 162.19122004408942, 159.79445878682068, 162.14127284780756, 163.00296699162288, 162.5187153616598, 154.3418153212145, 153.4944243346815, 153.02823582461696, 154.33063999892565, 161.27992571013755, 162.17760228155615, 162.27936774095758, 162.0066544731009, 159.68697607851155, 158.83633522531423, 159.9777569547207, 160.61299763628583, 160.9148022345114, 160.8537503511565, 158.2144323646535, 154.27836987778576, 153.05663379220906, 152.66418374784448, 153.18367700341005, 152.77420455703833, 152.61404515206607, 152.3083349146738, 160.661495534664, 161.33427015467015, 160.59905451391833, 161.41736096547254, 161.18722534150595, 161.01726255653418, 160.65254690927006, 158.9191598571402, 160.17687235713134, 161.20550124811828, 160.89054436887739, 161.55676082826383, 161.70408104308302, 161.18921384130886, 157.39011768672756, 158.42050965730914, 156.85526364614643, 155.98727562860887, 159.68470245240954, 152.60129546586944, 152.898093270259, 150.15016771460603, 156.28774090185084, 159.65194280651951, 155.2517613578803, 160.1341098850881, 159.69583976811043, 159.85887889154813, 159.70411831648516, 159.7403495524257, 160.2716852257149, 160.18975264335882, 156.0958585190782, 146.47215454229027, 147.68030079608982, 145.2448460471822, 140.17144780657958, 135.73434291922575, 138.5945675805144, 136.13920431036863, 132.90954485920105, 131.56515083870147, 132.87960537107773, 130.41605391016213, 127.40281166762902, 124.5820234793085, 123.8142861213209, 119.70675602840204, 128.40064936765205, 121.87847415363959, 141.1935671740569, 127.48302491230582, 144.08293586641093, 148.10905721420383, 137.80968413156273, 144.21477193061804, 153.38893853041534, 169.19799625382146, 167.39675267378382, 169.02271181371296, 167.73320995424953, 166.37890648507772, 167.54901567175676, 163.75502860095384, 160.94806297477217, 167.57067462686567, 163.6414013662058, 164.88619866261863, 163.8615878693474, 163.82964674810168, 158.97631966805292, 170.11811539327454, 167.71109333470957, 159.08309903305923, 156.32050697547186, 155.43715045428678, 184.4075454359812, 187.46347856748432, 188.10439634129986, 160.02213073130244, 148.63633732246055, 148.93875237379996, 149.44052818243105, 151.65502826561413, 149.72828446697915, 153.07461905569417, 154.62628045421081, 154.9525522102874, 155.2201532059769, 155.24608433313594, 159.86666698658271, 158.39272977067628, 152.8427663127439, 153.8971545496379, 155.19004969715093, 157.22609450690067, 157.19000437325752, 154.63489417611098, 162.28575069016776, 161.31591515065713, 154.18484204334283, 160.67335911648493, 162.9662910170961, 160.51273973308116, 161.1903234266553, 161.65967305656827, 157.66506068790179, 157.51645340268357, 156.62434231236227, 165.32176104856327, 164.1646940305277, 163.69405428591855, 158.59757523511692, 154.64838841907343, 155.2007896019351, 154.62992741584415, 157.29105302248067, 160.9891213894868, 158.60351476824096, 164.79417862572862, 165.3055708953803, 164.67254461284313, 162.50833325473258, 164.73148864994025, 162.21172415079906, 163.27242944969825, 159.7463661679463, 157.44270161474773, 164.9868516384395, 162.9018729370583, 163.84357808679707, 163.40090182219453, 163.09715449459438, 162.0388613205222, 161.60169172495526, 165.5367798451977, 165.37983680041157, 162.34965662647787, 162.79523361258674, 155.591048304766, 155.46890755553972, 155.98758192020063, 154.98757092677656, 154.36745211921905, 161.583352524004, 157.19930399011997, 151.72840221250482, 151.3469943786734, 151.53958450061103, 150.41355979922486, 152.3600287505134, 151.5590124706436, 151.3893069007533, 149.88449238321888, 150.6622140361907, 155.9260715581749, 157.2746689807687, 151.08263683947385, 150.6352637833429, 150.5092783053003, 151.44578009749284, 153.96680135812625, 156.68846021421325, 151.81135050635493, 149.23836228089993, 157.13752521856085, 157.25116500011876, 155.86501952904945, 156.6549233650503, 156.43407528610788, 153.91358262480622, 156.3567443910031, 149.0367497083003, 147.23319620771653, 151.86714758729488, 150.75703853918483, 153.33903959266087, 152.21676521643545, 153.7824645754837, 148.37618388800163, 147.56842463693772, 146.83254491336237, 146.6040269943326, 147.82825075915332, 152.18358283525473, 155.84826145308827, 155.41492026206683, 155.23894751719587, 151.0895938762879, 154.462248105963, 151.10083934001707, 150.0573674245872, 149.0682068356941, 145.8999558985667, 148.7621670058899, 150.89587196386935, 153.69393761312617, 152.85695705713877, 149.84904746897595, 154.5267020995393, 148.68855302618786, 156.73665838305115, 155.08265786813647, 156.74431109536587, 160.24996449367987, 161.48126011007903, 161.37853738115265, 155.36786225733334, 154.20789934015843, 151.0197864801649, 148.21268243537614, 152.08486126205125, 150.69067613432549, 145.5203642713468, 146.2577924911727, 150.16547440273035, 155.66009274685427, 157.46230439544502, 153.20143210016215, 147.63809239435614, 149.77662957794973, 157.58805025405576, 164.51064415121897, 164.92409349715314, 164.75082955507946, 165.20428885466046, 165.41014957373002, 159.5809765883682, 163.88696671378483, 163.8516615918211, 160.62870544830378, 150.91505989601228, 149.5229086123221, 155.73855944404048, 157.12808924030514, 154.29133369198416, 156.20370129999802, 156.09129000000001, 155.54307807061164, 156.44275831064712, 156.80831225189732, 155.6168549805209, 156.34747435366359, 156.0194699706617, 154.17409272643397, 150.01662641649636, 154.24491140969945, 156.1896806956658, 164.84140322864934, 158.45109428228315, 169.66858923987635, 170.08974953496974, 168.66786245830127, 156.3465112365853, 157.80101464292915, 151.84915999035397, 150.97269394184062, 151.10729121458243, 154.01733471472843, 154.26143252415446, 153.0964566323278, 156.85236843177097, 153.6329107797368, 154.23807207605572, 157.0335964279271, 159.98234979825708, 164.06345558823952, 156.89460393048154, 156.2564802122289, 157.62641833064671, 159.97363201813312, 160.69222685671696, 154.7203893660822, 154.97484237551336, 153.79969839991816, 153.83146012661314, 153.25887944743252, 155.573644524882, 162.78407911141872, 161.6568074322736, 162.0495848544261, 151.66948815417254, 159.29216170196483, 152.69754519333014, 162.5463240801022, 162.91641348684374, 163.18219372797535, 165.06369891261704, 164.97332794095345, 163.2176252347281, 162.34687908678947, 157.0949559306583, 155.2757947764844, 152.7061738700748, 157.86467563668896, 160.25360520971347, 160.16014179010003, 151.80249717819797, 151.178563188157, 151.32782175480037, 149.8797164270546, 149.40781762238785, 145.93254095871075, 144.71556733611988, 143.73097644283249, 143.51443338624176, 142.86548872444763, 142.67608306936654, 143.34026798307474, 147.36398169023707, 146.6734294915408, 144.67973590337317, 143.21286511989538, 143.28404737869897, 144.74740754886244, 144.796570919617, 143.6785280302595, 144.23830233422407, 148.93267981358616, 148.13889206063567, 150.02558744311324, 151.34690492524268, 149.36615195471268, 150.48042204631858, 151.94443307789598, 152.50455067100734, 153.27998157149975, 151.00448586511786, 148.444516058254, 146.01140960017182, 149.88900888925812, 152.54424814360829, 154.02823591878143, 151.65814690529456, 150.04906747815662, 148.49549197106853, 144.8887112816141, 145.2147140610702, 150.1810860731437, 150.22167560161472, 147.0043997457726, 146.87503153868968, 147.54823381587795, 147.70376871358934, 152.69758433139722, 152.04875823525904, 153.08118201528737, 153.30845553333273, 150.27585974406574, 149.39793024418518, 150.03725210091443, 150.78655770690293, 151.41711317129918, 156.61006472920022, 157.00170865199235, 159.83353345806222, 159.26466397198524, 160.3343777392342, 156.28492267867495, 154.76711160974574, 155.91919232593307, 159.33413853076775, 160.86863885967986, 154.12898868216297, 153.64202365658088, 154.10109373266778, 157.66675906570933, 156.85111278865656, 160.42177753707094, 160.89247583845142, 160.61222732357055, 157.17892931587323, 153.72979037575337, 159.73493134420093, 160.3373048189765, 161.13920393598306, 159.93000609492262, 154.612758399086, 154.87127595512635, 158.70240615265158, 160.09939314802116, 155.01252094729188, 153.36691108421726, 153.06159653602754, 153.58343422517285, 153.1963346965845, 153.06743937736047, 153.21127332248003, 159.06005885869317, 158.98894961429636, 154.47236876165994, 156.2600489055021, 155.38279684425268, 154.69387133885127, 158.18053467190586, 154.79130950169403, 159.51711880519696, 155.7496463487473, 155.15242935975897, 156.46388477209584, 158.85930779693416, 153.74716515949873, 155.06230536564414, 162.6872106889008, 162.3014290990178, 160.03285732688025, 163.61526353491178, 155.20304879960233, 164.61114483022294, 160.9812668840242, 160.29420821927943, 157.90413566048798, 159.62226467523448, 155.54283683057793, 158.3139443277311, 160.59039536270473, 155.01199611418588, 155.86602009720983, 165.03218349079586, 164.67376092323647, 164.9304041295416, 164.8835356978613, 164.80643112421436, 164.59289463595186, 165.42876054547006, 161.75973339911477, 163.87419999242596, 161.69757227912962, 164.6169881291457, 162.47050332651574, 164.73772367332467, 164.46607928269387, 164.7728040220072, 164.59404354440008, 158.64663192045285, 155.4178289494212, 156.40525872133645, 165.07074811741055, 164.59091470951793, 164.4573100855219, 164.30893037669713, 164.29890044379678, 165.63270613723236, 159.6533542803594, 158.0388826418891, 159.87211066199254, 154.57628545467503, 160.96979071206277, 160.57805628136055, 160.95298465352488, 160.58095958594157, 158.24039615300705, 156.4515202664686, 154.11769094138543, 161.0965968549861, 164.16033230974315, 164.97882684096277, 165.74044480975638, 165.4681765438996, 165.6099245721055, 164.83769962574635, 160.3962327911046, 157.80303175145102, 158.42428091078543, 157.9632699741531, 159.24497119175174, 160.37956207737247, 160.45828500699108, 160.02855186170822, 160.70454724127248, 158.24808487451523, 155.18213021463458, 153.92048229074814, 154.10254137377785, 157.09255057495258, 161.75568950555655, 163.418798077149, 159.7312748591792, 156.28303397883522, 154.48971743484304, 155.16778553546717, 160.72813457076566, 158.72616411540065, 160.85389301572425, 156.57677522239, 159.71994972837842, 161.38591799121434, 163.409278186033, 158.07308250234928, 154.80371089401646, 156.57778209712194, 163.42984818863047, 163.11708344722928, 163.83952805418988, 164.20847023431807, 163.4076689928717, 164.03640916607606, 162.3215004163665, 154.53350133346393, 159.6760196514646, 155.55538133917983, 161.11480653722586, 161.26315887070604, 163.79884385983095, 160.27064711862693, 159.91071206231064, 154.26663614909756, 156.66173136162024, 158.42564074359257, 162.91401475831037, 164.99194600824927, 164.79795219580117, 165.28579027860894, 163.92874205509725, 163.29192118872734, 164.42633657926643, 161.49048546947984, 154.7560538516405, 159.25898277955625, 161.81890539367177, 162.66659468594497, 163.32409546889087, 162.50602987912282, 163.15005879862647, 160.86450079607118, 154.49450427247777, 156.38100397255326, 163.99547747764865, 164.64451765022258, 164.53189124201467, 164.64748026657395, 164.82550268621836, 165.2564889717274, 161.42715296255435, 160.78075309545198, 158.54362081580393, 155.08052461116844, 154.9580359526564, 160.1426543746417, 161.01007514766098, 160.95582414540758, 163.4128962887837, 158.84528419053186, 158.69120698421133, 157.17581600692603, 163.8051778516775, 165.20247253670172, 164.17539446277925, 164.2996428130373, 163.42633381126666, 164.30545237463517, 164.53853765753078, 160.68429527220232, 165.01458028481525, 160.73219382489935, 154.76069665020685, 159.9143366796648, 162.26930478094147, 160.90637772205844, 162.57170433822264, 161.3706210669303, 157.78363684922886, 154.45458296545084, 156.51631146324016, 160.28518032452385, 163.38740742853338, 163.38734059422865, 163.61227941697575, 163.90250225481537, 163.97400926889244, 164.49414272023802, 165.05901593808667, 165.1089146970214, 158.24645731001613, 159.6205819148985, 162.15188871825603, 160.9029890826257, 160.13276082587245, 162.3853243035677, 162.36076545605377, 161.0745788289652, 162.93752219176525, 162.69058418338543, 164.82572873104053, 164.97862331239847, 164.54120823973616, 164.39355104242063, 164.09399422257732, 161.27269735012146, 163.5087926515362, 165.06594360294787, 165.52015584690108, 164.9757244705792, 164.87829096767717, 164.97112931125105, 164.7976073535204, 165.1554768812802, 165.42029603921904, 164.57035110286265, 161.5314683687996, 164.41825427126085, 163.51628426203033, 164.55155402307633, 162.59700456586506, 164.2805333027606, 164.21174692764595, 164.62742272258134, 164.048742481971, 162.17813007290914, 163.44505614148034, 163.93455199938893, 164.73029007824007, 164.4410747934657, 161.88987099521322, 163.78299341903235, 162.41635014864625, 163.7155387880217, 162.61426459892547, 162.6506658495769, 162.18273083859546, 164.11539748234102, 164.02820526338493, 163.8076813195185, 163.40020635048344, 163.52951023757205, 163.7875897920605, 163.37495681802048, 163.95431425932927, 164.25772020077096, 164.21764247882882, 164.14108552489165, 164.5433219169834, 164.2740342884546, 164.48113535578705, 163.94795636059928, 161.62659128997774, 162.2354103400796, 161.7404823824322, 163.92336254270015, 163.83330925899176, 163.74655227017533, 163.2016948177136, 163.05626115201179, 162.6595565734704, 162.55051525800945, 162.57848652420577, 162.51404580298598, 160.44266850016953, 163.00271997236854, 159.45696242885674, 162.07987799930314, 163.25253986392983, 163.8158903217153, 163.38468891247857, 161.04347171657307, 160.8710950966456, 163.74673995616178, 163.23248668082863, 162.53906539180764, 162.52808452591546, 162.37367885983926, 162.37183442140756, 162.765162584157, 162.10102138297822, 162.33238191607163, 162.45620062491923, 161.96568367935822, 159.58023588611618, 161.06281671197326, 161.3064853704745, 161.30759745444408, 158.42409254679671, 156.82278024860304, 157.38658130813633, 159.1461580619392, 158.61723822651683, 160.04429199945534, 159.21993096734224, 161.44476266091988, 160.79061105977382, 160.0923401948137, 154.74232729102823, 159.8670114258119, 161.22858889541828, 161.74986017830255, 156.0111509358821, 158.29011076133847, 160.68959624823185, 161.35091176986163, 159.66810660179968, 160.9996518892067, 158.52234899982832, 158.44215809636964, 161.32909492483435, 162.60179626407663, 161.99769164136197, 161.39661164616422, 160.99949512107656, 160.49835866946563, 160.5408593566565, 161.26409922598054, 161.96679003701112, 162.46795259143656, 162.22377255810187, 156.7051491509867, 157.1091946925726, 159.2216422003849, 158.24447999558674, 155.15704185187533, 155.34803745294485, 159.70600181987035, 156.3485300422754, 160.12945314486436, 161.24508606224242, 161.04798483686773, 161.27579500607166, 160.85332308983018, 160.87917359028793, 158.863060401687, 161.67818696073147, 156.5022285260515, 162.50187635207723, 163.42551505141566, 157.63175530502377, 151.20163589215434, 152.33986206896552, 152.62908895281777, 152.05815548262984, 160.08274558683448, 156.97994772102788, 161.88270807757104, 163.30102922794606, 162.4476357070308, 163.0530619158339, 162.96649618563416, 162.94091183879092, 160.63482650027962, 162.3027192805031, 166.48834672510347, 165.3850135198541, 165.77707175774808, 164.24286075068736, 163.02772006716566, 159.1674903442834, 157.8497600607304, 164.4087589171824, 166.71847180471988, 166.66675352751557, 166.9190432867267, 164.99010060591118, 165.50402361407527, 164.42818609009214, 164.61692217483002, 163.81679958716455, 164.07344304156618, 164.7407003022819, 163.52543802787363, 163.7386108891955, 162.8922418732572, 162.87955331535667, 161.41570559176543, 160.04717805104602, 159.210406522009, 159.78035195089143, 156.9726279863481, 152.35958317430166, 156.64226298658195, 161.33698775139877, 162.03951328880822, 161.5468655617638, 161.6868797925124, 160.93512912508876, 161.84254966263336, 156.51770148792482, 157.20766041080225, 158.80315518261574, 160.5694443791627, 161.2740188252115, 159.7991361096765, 159.52658144076207, 157.58697638298844, 162.62682345084198, 163.60490891250862, 159.34015813953488, 153.1744649596701, 156.16472155729193, 164.76086935776314, 164.78991531910592, 166.37650271115143, 165.43367708792576, 165.4809161033191, 159.6835742576987, 163.0472122365546, 166.3324726529631, 162.84952705311989, 163.76489855208285, 162.70765490311646, 161.2974707863391, 168.06994237099497, 170.71238703330405, 172.34518812790404, 171.00616883958426, 167.95279207958657, 171.86662895197827, 171.45073990516977, 169.71313191181105, 168.8565914208405, 168.20705939245605, 162.95144253216284, 161.0500283196687, 162.32604117480403, 163.03960495624727, 161.27481545788987, 159.64058024974224, 150.9472949806642, 151.1236143278938, 150.64602046017825, 152.18224320031587, 159.76836055279392, 155.94694736451788, 150.0367110385867, 150.0946127317654, 151.6247343395411, 158.90107288547242, 156.24446749654217, 152.1494371390057, 154.3932992814475, 157.82973037595465, 149.2725979842236, 149.8352819639714, 150.1923950283731, 153.80062108985402, 154.16680706515552, 152.06491649329763, 153.19275113924164, 151.40495587388457, 152.00685190011052, 149.89362108310172, 151.59982272136207, 155.72376594718884, 158.70696612860544, 159.10530422323416, 158.04345869314508, 159.1095891056229, 158.8776810773839, 158.55740660336397, 149.2006927474399, 157.29906718442572, 159.48306936231037, 159.11948161214607, 159.08899895724713, 151.4258284833506, 150.5348708145773, 155.60863107555065, 155.74362911793494, 155.70009433652325, 152.88490060532908, 156.56530326376244, 159.50774374800267, 159.43292812865525, 158.79514038876889, 158.8415956205269, 158.88917238230187, 155.8911469958757, 159.1995621845188, 155.46947426878933, 155.97015753686586, 154.596213695341, 149.5350729086723, 149.28307754301133, 149.6058967865531, 149.44276079530525, 151.21907569970293, 158.5883651902092, 150.09501533157047, 149.46870745878226, 157.72254558833242, 157.7101549686104, 159.04197216427733, 156.40950172517356, 154.92045318912565, 158.82560031020364, 158.2884077351315, 156.5805071441626, 151.90965433634668, 151.10352641397827, 157.7635050071531, 151.54688520749514, 155.54273260796057, 152.2457723272203, 155.55627291232875, 155.69635678159216, 150.9251501267737, 159.04181282114484, 158.38704551961067, 156.9673153680717, 156.3366701940702, 154.74927597170975, 153.76696937338764, 153.16890901005743, 150.14638907564975, 143.9460045302824, 153.69916443882292, 148.29221782324754, 144.62412651057068, 152.16257031628356, 152.43676927630605, 149.38254976132575, 157.0640909807971, 154.04735927436965, 149.33459058225225, 151.79460637428494, 152.5608545956176, 154.78503844976484, 157.92906662636722, 156.6055674717896, 156.67717057914592, 158.61657703854874, 158.60713645920745, 157.63122632989916, 159.37004158093893, 157.14181787540025, 152.32477383091285, 158.31635860740852, 157.36616411213043, 157.95946869994472, 152.9459263397886, 157.94548544680285, 156.0539155880054, 160.65731680800172, 161.22419127850813, 160.08795810004722, 159.1492850892797, 158.4944298214413, 157.28309345852122, 160.23581224049823, 159.62329136960415, 156.73110054953213, 155.3765882457474, 155.38259627671567, 150.6149621040697, 150.72758217413215, 143.2236827614764, 144.80288973790852, 145.99923984308188, 153.69641194657, 157.23363685770244, 159.93944243460493, 158.86829983788374, 158.82451129435972, 155.53200908171561, 156.73278243808684, 155.12226044663248, 157.52877139202988, 155.8835318299982, 157.35487930148946, 152.06325427553386, 151.06777950978798, 151.27478286840116, 150.84365623609244, 142.01286914957888, 149.78073228324055, 142.02965965501232, 151.23182179870832, 148.57014498868475, 153.36776954603545, 148.83819622465626, 148.76493402490013, 150.2548415617152, 147.17322024598784, 148.27930341901947, 148.65573346988296, 147.08780921953445, 